""	"samplename"	"strain"	"sample"	"experiment"	"time"	"generation"	"CN"	"Sugar"	"reactorname"	"fraction"	"correctedfraction"	"sum"	"correctedsum"	"correctedfraction2"	"correctedsum2"
"1"	"Atyp"	"Lcas"	"Atyp"	"SDR12"	"inoculate"	0	5	"inoculate"	"inoculate"	0.013675922	0.01285536668	1	1.55809642221333	0.00825068750349768	1
"2"	"Atyp"	"Lreu"	"Atyp"	"SDR12"	"inoculate"	0	6	"inoculate"	"inoculate"	0	0	1	1.55809642221333	0	1
"3"	"Atyp"	"Phis"	"Atyp"	"SDR12"	"inoculate"	0	4	"inoculate"	"inoculate"	0	0	1	1.55809642221333	0	1
"4"	"Atyp"	"Smit"	"Atyp"	"SDR12"	"inoculate"	0	4	"inoculate"	"inoculate"	0	0	1	1.55809642221333	0	1
"5"	"Atyp"	"Ssal"	"Atyp"	"SDR12"	"inoculate"	0	6	"inoculate"	"inoculate"	0	0	1	1.55809642221333	0	1
"6"	"Atyp"	"Vaty"	"Atyp"	"SDR12"	"inoculate"	0	3	"inoculate"	"inoculate"	0.986324078	1.54524105553333	1	1.55809642221333	0.991749312496502	1
"7"	"LactoStreps"	"Lcas"	"LactoStreps"	"SDR12"	"inoculate"	0	5	"inoculate"	"inoculate"	0.066307501	0.06232905094	1	0.97389142129	0.0639999999768352	1
"8"	"LactoStreps"	"Lreu"	"LactoStreps"	"SDR12"	"inoculate"	0	6	"inoculate"	"inoculate"	0.004558641	0.00357093545	1	0.97389142129	0.0036666669116666	1
"9"	"LactoStreps"	"Phis"	"LactoStreps"	"SDR12"	"inoculate"	0	4	"inoculate"	"inoculate"	0	0	1	0.97389142129	0	1
"10"	"LactoStreps"	"Smit"	"LactoStreps"	"SDR12"	"inoculate"	0	4	"inoculate"	"inoculate"	0.460008288	0.5405097384	1	0.97389142129	0.554999999572899	1
"11"	"LactoStreps"	"Ssal"	"LactoStreps"	"SDR12"	"inoculate"	0	6	"inoculate"	"inoculate"	0.46912557	0.3674816965	1	0.97389142129	0.377333333538599	1
"12"	"LactoStreps"	"Vaty"	"LactoStreps"	"SDR12"	"inoculate"	0	3	"inoculate"	"inoculate"	0	0	1	0.97389142129	0	1
"13"	"Phis"	"Lcas"	"Phis"	"SDR12"	"inoculate"	0	5	"inoculate"	"inoculate"	0.002900953	0.00272689582	1	1.174318276045	0.0023221096662005	1
"14"	"Phis"	"Lreu"	"Phis"	"SDR12"	"inoculate"	0	6	"inoculate"	"inoculate"	0	0	1	1.174318276045	0	1
"15"	"Phis"	"Phis"	"Phis"	"SDR12"	"inoculate"	0	4	"inoculate"	"inoculate"	0.997099047	1.171591380225	1	1.174318276045	0.997677890333799	1
"16"	"Phis"	"Smit"	"Phis"	"SDR12"	"inoculate"	0	4	"inoculate"	"inoculate"	0	0	1	1.174318276045	0	1
"17"	"Phis"	"Ssal"	"Phis"	"SDR12"	"inoculate"	0	6	"inoculate"	"inoculate"	0	0	1	1.174318276045	0	1
"18"	"Phis"	"Vaty"	"Phis"	"SDR12"	"inoculate"	0	3	"inoculate"	"inoculate"	0	0	1	1.174318276045	0	1
"19"	"S1R1_0"	"Lcas"	"S1R1"	"SDR12"	"0"	0.528	5	"Trehalose"	"R1"	0.284293411	0.26723580634	1	1.087414698415	0.245753351255523	1
"20"	"S1R1_0"	"Lreu"	"S1R1"	"SDR12"	"0"	0.528	6	"Trehalose"	"R1"	0.002072109	0.00162315205	1	1.087414698415	0.00149267069165598	1
"21"	"S1R1_0"	"Phis"	"S1R1"	"SDR12"	"0"	0.528	4	"Trehalose"	"R1"	0.661002901	0.776678408675	1	1.087414698415	0.714243066428176	1
"22"	"S1R1_0"	"Smit"	"S1R1"	"SDR12"	"0"	0.528	4	"Trehalose"	"R1"	0	0	1	1.087414698415	0	1
"23"	"S1R1_0"	"Ssal"	"S1R1"	"SDR12"	"0"	0.528	6	"Trehalose"	"R1"	0.051802735	0.0405788090833333	1	1.087414698415	0.0373167744950298	1
"24"	"S1R1_0"	"Vaty"	"S1R1"	"SDR12"	"0"	0.528	3	"Trehalose"	"R1"	0.000828844	0.00129852226666667	1	1.087414698415	0.0011941371296152	1
"25"	"S1R1_11"	"Lcas"	"S1R1"	"SDR12"	"11"	98.96109505	5	"Trehalose"	"R1"	0.7708247	0.724575218	1.000000001	1.06008081308333	0.683509416506193	1
"26"	"S1R1_11"	"Lreu"	"S1R1"	"SDR12"	"11"	98.96109505	6	"Trehalose"	"R1"	0.000828844	0.000649261133333333	1.000000001	1.06008081308333	0.00061246380966457	1
"27"	"S1R1_11"	"Phis"	"S1R1"	"SDR12"	"11"	98.96109505	4	"Trehalose"	"R1"	0	0	1.000000001	1.06008081308333	0	1
"28"	"S1R1_11"	"Smit"	"S1R1"	"SDR12"	"11"	98.96109505	4	"Trehalose"	"R1"	0.000414422	0.00048694585	1.000000001	1.06008081308333	0.000459347857248428	1
"29"	"S1R1_11"	"Ssal"	"S1R1"	"SDR12"	"11"	98.96109505	6	"Trehalose"	"R1"	0.029009532	0.0227241334	1.000000001	1.06008081308333	0.021436227426761	1
"30"	"S1R1_11"	"Vaty"	"S1R1"	"SDR12"	"11"	98.96109505	3	"Trehalose"	"R1"	0.198922503	0.3116452547	1.000000001	1.06008081308333	0.293982544400133	1
"31"	"S1R1_13"	"Lcas"	"S1R1"	"SDR12"	"13"	117.049576	5	"Trehalose"	"R1"	0.76212184	0.7163945296	1	1.08582400871667	0.659770389905732	1
"32"	"S1R1_13"	"Lreu"	"S1R1"	"SDR12"	"13"	117.049576	6	"Trehalose"	"R1"	0.000414422	0.000324630566666667	1	1.08582400871667	0.000298971623449685	1
"33"	"S1R1_13"	"Phis"	"S1R1"	"SDR12"	"13"	117.049576	4	"Trehalose"	"R1"	0	0	1	1.08582400871667	0	1
"34"	"S1R1_13"	"Smit"	"S1R1"	"SDR12"	"13"	117.049576	4	"Trehalose"	"R1"	0	0	1	1.08582400871667	0	1
"35"	"S1R1_13"	"Ssal"	"S1R1"	"SDR12"	"13"	117.049576	6	"Trehalose"	"R1"	0.003729797	0.00292167431666667	1	1.08582400871667	0.00269074388962884	1
"36"	"S1R1_13"	"Vaty"	"S1R1"	"SDR12"	"13"	117.049576	3	"Trehalose"	"R1"	0.233733941	0.366183174233333	1	1.08582400871667	0.33723989458119	1
"37"	"S1R1_15"	"Lcas"	"S1R1"	"SDR12"	"15"	135.6178513	5	"Trehalose"	"R1"	0.856610029	0.80521342726	1	1.02661141027667	0.78434100692783	1
"38"	"S1R1_15"	"Lreu"	"S1R1"	"SDR12"	"15"	135.6178513	6	"Trehalose"	"R1"	0	0	1	1.02661141027667	0	1
"39"	"S1R1_15"	"Phis"	"S1R1"	"SDR12"	"15"	135.6178513	4	"Trehalose"	"R1"	0	0	1	1.02661141027667	0	1
"40"	"S1R1_15"	"Smit"	"S1R1"	"SDR12"	"15"	135.6178513	4	"Trehalose"	"R1"	0	0	1	1.02661141027667	0	1
"41"	"S1R1_15"	"Ssal"	"S1R1"	"SDR12"	"15"	135.6178513	6	"Trehalose"	"R1"	0.004144219	0.00324630488333333	1	1.02661141027667	0.00316215546684648	1
"42"	"S1R1_15"	"Vaty"	"S1R1"	"SDR12"	"15"	135.6178513	3	"Trehalose"	"R1"	0.139245752	0.218151678133333	1	1.02661141027667	0.212496837605324	1
"43"	"S1R1_18"	"Lcas"	"S1R1"	"SDR12"	"18"	163.8308677	5	"Trehalose"	"R1"	0.956071281	0.89870700414	1.000000001	0.96071142514	0.935459890059115	1
"44"	"S1R1_18"	"Lreu"	"S1R1"	"SDR12"	"18"	163.8308677	6	"Trehalose"	"R1"	0.001657688	0.00129852226666667	1.000000001	0.96071142514	0.00135162571474305	1
"45"	"S1R1_18"	"Phis"	"S1R1"	"SDR12"	"18"	163.8308677	4	"Trehalose"	"R1"	0	0	1.000000001	0.96071142514	0	1
"46"	"S1R1_18"	"Smit"	"S1R1"	"SDR12"	"18"	163.8308677	4	"Trehalose"	"R1"	0	0	1.000000001	0.96071142514	0	1
"47"	"S1R1_18"	"Ssal"	"S1R1"	"SDR12"	"18"	163.8308677	6	"Trehalose"	"R1"	0.007045172	0.00551871806666667	1.000000001	0.96071142514	0.005744407656922	1
"48"	"S1R1_18"	"Vaty"	"S1R1"	"SDR12"	"18"	163.8308677	3	"Trehalose"	"R1"	0.03522586	0.0551871806666667	1.000000001	0.96071142514	0.05744407656922	1
"49"	"S1R1_3"	"Lcas"	"S1R1"	"SDR12"	"3"	28.85197241	5	"Trehalose"	"R1"	0.391214256	0.36774140064	1	1.30754662245667	0.281245344773308	1
"50"	"S1R1_3"	"Lreu"	"S1R1"	"SDR12"	"3"	28.85197241	6	"Trehalose"	"R1"	0	0	1	1.30754662245667	0	1
"51"	"S1R1_3"	"Phis"	"S1R1"	"SDR12"	"3"	28.85197241	4	"Trehalose"	"R1"	0	0	1	1.30754662245667	0	1
"52"	"S1R1_3"	"Smit"	"S1R1"	"SDR12"	"3"	28.85197241	4	"Trehalose"	"R1"	0	0	1	1.30754662245667	0	1
"53"	"S1R1_3"	"Ssal"	"S1R1"	"SDR12"	"3"	28.85197241	6	"Trehalose"	"R1"	0.017820141	0.01395911045	1	1.30754662245667	0.0106758032258713	1
"54"	"S1R1_3"	"Vaty"	"S1R1"	"SDR12"	"3"	28.85197241	3	"Trehalose"	"R1"	0.590965603	0.925846111366667	1	1.30754662245667	0.70807885200082	1
"55"	"S1R1_6"	"Lcas"	"S1R1"	"SDR12"	"6"	55.81144377	5	"Trehalose"	"R1"	0.899295483	0.84533775402	1.000000001	0.960906203636667	0.87972972889624	1
"56"	"S1R1_6"	"Lreu"	"S1R1"	"SDR12"	"6"	55.81144377	6	"Trehalose"	"R1"	0	0	1.000000001	0.960906203636667	0	1
"57"	"S1R1_6"	"Phis"	"S1R1"	"SDR12"	"6"	55.81144377	4	"Trehalose"	"R1"	0	0	1.000000001	0.960906203636667	0	1
"58"	"S1R1_6"	"Smit"	"S1R1"	"SDR12"	"6"	55.81144377	4	"Trehalose"	"R1"	0	0	1.000000001	0.960906203636667	0	1
"59"	"S1R1_6"	"Ssal"	"S1R1"	"SDR12"	"6"	55.81144377	6	"Trehalose"	"R1"	0.053874845	0.0422019619166667	1.000000001	0.960906203636667	0.0439189192003842	1
"60"	"S1R1_6"	"Vaty"	"S1R1"	"SDR12"	"6"	55.81144377	3	"Trehalose"	"R1"	0.046829673	0.0733664877	1.000000001	0.960906203636667	0.0763513519033758	1
"61"	"S1R1_7"	"Lcas"	"S1R1"	"SDR12"	"7"	64.43584377	5	"Trehalose"	"R1"	0.473269789	0.44487360166	1.000000001	1.25872220042667	0.353432712562948	1
"62"	"S1R1_7"	"Lreu"	"S1R1"	"SDR12"	"7"	64.43584377	6	"Trehalose"	"R1"	0.000828844	0.000649261133333333	1.000000001	1.25872220042667	0.000515809710127663	1
"63"	"S1R1_7"	"Phis"	"S1R1"	"SDR12"	"7"	64.43584377	4	"Trehalose"	"R1"	0	0	1.000000001	1.25872220042667	0	1
"64"	"S1R1_7"	"Smit"	"S1R1"	"SDR12"	"7"	64.43584377	4	"Trehalose"	"R1"	0	0	1.000000001	1.25872220042667	0	1
"65"	"S1R1_7"	"Ssal"	"S1R1"	"SDR12"	"7"	64.43584377	6	"Trehalose"	"R1"	0.013675922	0.0107128055666667	1.000000001	1.25872220042667	0.00851085772780949	1
"66"	"S1R1_7"	"Vaty"	"S1R1"	"SDR12"	"7"	64.43584377	3	"Trehalose"	"R1"	0.512225446	0.802486532066667	1.000000001	1.25872220042667	0.637540619999114	1
"67"	"S1R1_9"	"Lcas"	"S1R1"	"SDR12"	"9"	81.63022325	5	"Trehalose"	"R1"	0.866970576	0.81495234144	1	0.985383340373333	0.827040917021428	1
"68"	"S1R1_9"	"Lreu"	"S1R1"	"SDR12"	"9"	81.63022325	6	"Trehalose"	"R1"	0.000414422	0.000324630566666667	1	0.985383340373333	0.000329445966220287	1
"69"	"S1R1_9"	"Phis"	"S1R1"	"SDR12"	"9"	81.63022325	4	"Trehalose"	"R1"	0	0	1	0.985383340373333	0	1
"70"	"S1R1_9"	"Smit"	"S1R1"	"SDR12"	"9"	81.63022325	4	"Trehalose"	"R1"	0	0	1	0.985383340373333	0	1
"71"	"S1R1_9"	"Ssal"	"S1R1"	"SDR12"	"9"	81.63022325	6	"Trehalose"	"R1"	0.048072938	0.0376571347666667	1	0.985383340373333	0.0382157209522128	1
"72"	"S1R1_9"	"Vaty"	"S1R1"	"SDR12"	"9"	81.63022325	3	"Trehalose"	"R1"	0.084542064	0.1324492336	1	0.985383340373333	0.134413916060138	1
"73"	"S1R1_takedown"	"Lcas"	"S1R1"	"SDR12"	"takedown"	174.6912704	5	"Trehalose"	"R1"	0.847492748	0.79664318312	1.000000001	0.985578119653333	0.808300394696476	1
"74"	"S1R1_takedown"	"Lreu"	"S1R1"	"SDR12"	"takedown"	174.6912704	6	"Trehalose"	"R1"	0.003729797	0.00292167431666667	1.000000001	0.985578119653333	0.00296442692710582	1
"75"	"S1R1_takedown"	"Phis"	"S1R1"	"SDR12"	"takedown"	174.6912704	4	"Trehalose"	"R1"	0	0	1.000000001	0.985578119653333	0	1
"76"	"S1R1_takedown"	"Smit"	"S1R1"	"SDR12"	"takedown"	174.6912704	4	"Trehalose"	"R1"	0.000828844	0.0009738917	1.000000001	0.985578119653333	0.000988142573967202	1
"77"	"S1R1_takedown"	"Ssal"	"S1R1"	"SDR12"	"takedown"	174.6912704	6	"Trehalose"	"R1"	0.059676751	0.0467467882833333	1.000000001	0.985578119653333	0.0474308300388974	1
"78"	"S1R1_takedown"	"Vaty"	"S1R1"	"SDR12"	"takedown"	174.6912704	3	"Trehalose"	"R1"	0.088271861	0.138292582233333	1.000000001	0.985578119653333	0.140316205763554	1
"79"	"S1R2_0"	"Lcas"	"S1R2"	"SDR12"	"0"	0.45	5	"Trehalose"	"R2"	0.433485288	0.40747617072	1	1.02703342977833	0.396750640149996	1
"80"	"S1R2_0"	"Lreu"	"S1R2"	"SDR12"	"0"	0.45	6	"Trehalose"	"R2"	0.001657688	0.00129852226666667	1	1.02703342977833	0.00126434274583149	1
"81"	"S1R2_0"	"Phis"	"S1R2"	"SDR12"	"0"	0.45	4	"Trehalose"	"R2"	0.436386241	0.512753833175	1	1.02703342977833	0.499257198751231	1
"82"	"S1R2_0"	"Smit"	"S1R2"	"SDR12"	"0"	0.45	4	"Trehalose"	"R2"	0.012432656	0.0146083708	1	1.02703342977833	0.014223851314317	1
"83"	"S1R2_0"	"Ssal"	"S1R2"	"SDR12"	"0"	0.45	6	"Trehalose"	"R2"	0.116038127	0.0908965328166667	1	1.02703342977833	0.0885039670386241	1
"84"	"S1R2_0"	"Vaty"	"S1R2"	"SDR12"	"0"	0.45	3	"Trehalose"	"R2"	0	0	1	1.02703342977833	0	1
"85"	"S1R2_11"	"Lcas"	"S1R2"	"SDR12"	"11"	99.27147654	5	"Trehalose"	"R2"	0.163696643	0.15387484442	1	1.46116176273667	0.105309931004355	1
"86"	"S1R2_11"	"Lreu"	"S1R2"	"SDR12"	"11"	99.27147654	6	"Trehalose"	"R2"	0	0	1	1.46116176273667	0	1
"87"	"S1R2_11"	"Phis"	"S1R2"	"SDR12"	"11"	99.27147654	4	"Trehalose"	"R2"	0	0	1	1.46116176273667	0	1
"88"	"S1R2_11"	"Smit"	"S1R2"	"SDR12"	"11"	99.27147654	4	"Trehalose"	"R2"	0	0	1	1.46116176273667	0	1
"89"	"S1R2_11"	"Ssal"	"S1R2"	"SDR12"	"11"	99.27147654	6	"Trehalose"	"R2"	0.003729797	0.00292167431666667	1	1.46116176273667	0.00199955568998367	1
"90"	"S1R2_11"	"Vaty"	"S1R2"	"SDR12"	"11"	99.27147654	3	"Trehalose"	"R2"	0.83257356	1.304365244	1	1.46116176273667	0.892690513305661	1
"91"	"S1R2_13"	"Lcas"	"S1R2"	"SDR12"	"13"	117.5890837	5	"Trehalose"	"R2"	0.335267302	0.31515126388	1	1.35364414976333	0.232816921592798	1
"92"	"S1R2_13"	"Lreu"	"S1R2"	"SDR12"	"13"	117.5890837	6	"Trehalose"	"R2"	0	0	1	1.35364414976333	0	1
"93"	"S1R2_13"	"Phis"	"S1R2"	"SDR12"	"13"	117.5890837	4	"Trehalose"	"R2"	0	0	1	1.35364414976333	0	1
"94"	"S1R2_13"	"Smit"	"S1R2"	"SDR12"	"13"	117.5890837	4	"Trehalose"	"R2"	0	0	1	1.35364414976333	0	1
"95"	"S1R2_13"	"Ssal"	"S1R2"	"SDR12"	"13"	117.5890837	6	"Trehalose"	"R2"	0.003729797	0.00292167431666667	1	1.35364414976333	0.00215837693915161	1
"96"	"S1R2_13"	"Vaty"	"S1R2"	"SDR12"	"13"	117.5890837	3	"Trehalose"	"R2"	0.661002901	1.03557121156667	1	1.35364414976333	0.76502470146805	1
"97"	"S1R2_15"	"Lcas"	"S1R2"	"SDR12"	"15"	136.2409442	5	"Trehalose"	"R2"	0.214670535	0.2017903029	1.000000001	1.43116590793333	0.140997142107301	1
"98"	"S1R2_15"	"Lreu"	"S1R2"	"SDR12"	"15"	136.2409442	6	"Trehalose"	"R2"	0	0	1.000000001	1.43116590793333	0	1
"99"	"S1R2_15"	"Phis"	"S1R2"	"SDR12"	"15"	136.2409442	4	"Trehalose"	"R2"	0	0	1.000000001	1.43116590793333	0	1
"100"	"S1R2_15"	"Smit"	"S1R2"	"SDR12"	"15"	136.2409442	4	"Trehalose"	"R2"	0	0	1.000000001	1.43116590793333	0	1
"101"	"S1R2_15"	"Ssal"	"S1R2"	"SDR12"	"15"	136.2409442	6	"Trehalose"	"R2"	0.001243266	0.0009738917	1.000000001	1.43116590793333	0.000680488330948536	1
"102"	"S1R2_15"	"Vaty"	"S1R2"	"SDR12"	"15"	136.2409442	3	"Trehalose"	"R2"	0.7840862	1.22840171333333	1.000000001	1.43116590793333	0.858322369561751	1
"103"	"S1R2_18"	"Lcas"	"S1R2"	"SDR12"	"18"	161.3343489	5	"Trehalose"	"R2"	0.419394944	0.39423124736	1	1.30287194339333	0.302586335793849	1
"104"	"S1R2_18"	"Lreu"	"S1R2"	"SDR12"	"18"	161.3343489	6	"Trehalose"	"R2"	0	0	1	1.30287194339333	0	1
"105"	"S1R2_18"	"Phis"	"S1R2"	"SDR12"	"18"	161.3343489	4	"Trehalose"	"R2"	0	0	1	1.30287194339333	0	1
"106"	"S1R2_18"	"Smit"	"S1R2"	"SDR12"	"18"	161.3343489	4	"Trehalose"	"R2"	0	0	1	1.30287194339333	0	1
"107"	"S1R2_18"	"Ssal"	"S1R2"	"SDR12"	"18"	161.3343489	6	"Trehalose"	"R2"	0.001243266	0.0009738917	1	1.30287194339333	0.000747496102697167	1
"108"	"S1R2_18"	"Vaty"	"S1R2"	"SDR12"	"18"	161.3343489	3	"Trehalose"	"R2"	0.57936179	0.907666804333333	1	1.30287194339333	0.696666168103454	1
"109"	"S1R2_3"	"Lcas"	"S1R2"	"SDR12"	"3"	26.37072414	5	"Trehalose"	"R2"	0.588479072	0.55317032768	1	1.11754040607167	0.494989107037733	1
"110"	"S1R2_3"	"Lreu"	"S1R2"	"SDR12"	"3"	26.37072414	6	"Trehalose"	"R2"	0	0	1	1.11754040607167	0	1
"111"	"S1R2_3"	"Phis"	"S1R2"	"SDR12"	"3"	26.37072414	4	"Trehalose"	"R2"	0.000414422	0.00048694585	1	1.11754040607167	0.000435729972137377	1
"112"	"S1R2_3"	"Smit"	"S1R2"	"SDR12"	"3"	26.37072414	4	"Trehalose"	"R2"	0.003315375	0.003895565625	1	1.11754040607167	0.00348583872568289	1
"113"	"S1R2_3"	"Ssal"	"S1R2"	"SDR12"	"3"	26.37072414	6	"Trehalose"	"R2"	0.100704517	0.0788852049833333	1	1.11754040607167	0.0705882351588767	1
"114"	"S1R2_3"	"Vaty"	"S1R2"	"SDR12"	"3"	26.37072414	3	"Trehalose"	"R2"	0.307086614	0.481102361933333	1	1.11754040607167	0.43050108910557	1
"115"	"S1R2_6"	"Lcas"	"S1R2"	"SDR12"	"6"	54.89185808	5	"Trehalose"	"R2"	0.794446747	0.74677994218	1	0.986681862013333	0.756859906856085	1
"116"	"S1R2_6"	"Lreu"	"S1R2"	"SDR12"	"6"	54.89185808	6	"Trehalose"	"R2"	0.001657688	0.00129852226666667	1	0.986681862013333	0.00131604959679407	1
"117"	"S1R2_6"	"Phis"	"S1R2"	"SDR12"	"6"	54.89185808	4	"Trehalose"	"R2"	0	0	1	0.986681862013333	0	1
"118"	"S1R2_6"	"Smit"	"S1R2"	"SDR12"	"6"	54.89185808	4	"Trehalose"	"R2"	0	0	1	0.986681862013333	0	1
"119"	"S1R2_6"	"Ssal"	"S1R2"	"SDR12"	"6"	54.89185808	6	"Trehalose"	"R2"	0.103191048	0.0808329876	1	0.986681862013333	0.0819240635832299	1
"120"	"S1R2_6"	"Vaty"	"S1R2"	"SDR12"	"6"	54.89185808	3	"Trehalose"	"R2"	0.100704517	0.157770409966667	1	0.986681862013333	0.159899979963891	1
"121"	"S1R2_7"	"Lcas"	"S1R2"	"SDR12"	"7"	64.02913808	5	"Trehalose"	"R2"	0.506423539	0.47603812666	0.999999999	1.20385964797667	0.395426599321673	1
"122"	"S1R2_7"	"Lreu"	"S1R2"	"SDR12"	"7"	64.02913808	6	"Trehalose"	"R2"	0.002486531	0.00194778261666667	0.999999999	1.20385964797667	0.00161794825496503	1
"123"	"S1R2_7"	"Phis"	"S1R2"	"SDR12"	"7"	64.02913808	4	"Trehalose"	"R2"	0	0	0.999999999	1.20385964797667	0	1
"124"	"S1R2_7"	"Smit"	"S1R2"	"SDR12"	"7"	64.02913808	4	"Trehalose"	"R2"	0	0	0.999999999	1.20385964797667	0	1
"125"	"S1R2_7"	"Ssal"	"S1R2"	"SDR12"	"7"	64.02913808	6	"Trehalose"	"R2"	0.055532532	0.0435004834	0.999999999	1.20385964797667	0.0361341818152236	1
"126"	"S1R2_7"	"Vaty"	"S1R2"	"SDR12"	"7"	64.02913808	3	"Trehalose"	"R2"	0.435557397	0.6823732553	0.999999999	1.20385964797667	0.566821270608138	1
"127"	"S1R2_9"	"Lcas"	"S1R2"	"SDR12"	"9"	81.5661227	5	"Trehalose"	"R2"	0.570244509	0.53602983846	1	1.18496615557667	0.452358774921415	1
"128"	"S1R2_9"	"Lreu"	"S1R2"	"SDR12"	"9"	81.5661227	6	"Trehalose"	"R2"	0	0	1	1.18496615557667	0	1
"129"	"S1R2_9"	"Phis"	"S1R2"	"SDR12"	"9"	81.5661227	4	"Trehalose"	"R2"	0	0	1	1.18496615557667	0	1
"130"	"S1R2_9"	"Smit"	"S1R2"	"SDR12"	"9"	81.5661227	4	"Trehalose"	"R2"	0	0	1	1.18496615557667	0	1
"131"	"S1R2_9"	"Ssal"	"S1R2"	"SDR12"	"9"	81.5661227	6	"Trehalose"	"R2"	0.031081641	0.02434728545	1	1.18496615557667	0.0205468192786918	1
"132"	"S1R2_9"	"Vaty"	"S1R2"	"SDR12"	"9"	81.5661227	3	"Trehalose"	"R2"	0.39867385	0.624589031666667	1	1.18496615557667	0.527094405799893	1
"133"	"S1R2_takedown"	"Lcas"	"S1R2"	"SDR12"	"takedown"	170.7303489	5	"Trehalose"	"R2"	0.37670949	0.3541069206	1	1.258040475375	0.281474982348598	1
"134"	"S1R2_takedown"	"Lreu"	"S1R2"	"SDR12"	"takedown"	170.7303489	6	"Trehalose"	"R2"	0.000414422	0.000324630566666667	1	1.258040475375	0.000258044612252956	1
"135"	"S1R2_takedown"	"Phis"	"S1R2"	"SDR12"	"takedown"	170.7303489	4	"Trehalose"	"R2"	0	0	1	1.258040475375	0	1
"136"	"S1R2_takedown"	"Smit"	"S1R2"	"SDR12"	"takedown"	170.7303489	4	"Trehalose"	"R2"	0.002900953	0.003408619775	1	1.258040475375	0.00270946749466383	1
"137"	"S1R2_takedown"	"Ssal"	"S1R2"	"SDR12"	"takedown"	170.7303489	6	"Trehalose"	"R2"	0.090758392	0.0710940737333333	1	1.258040475375	0.0565117538941992	1
"138"	"S1R2_takedown"	"Vaty"	"S1R2"	"SDR12"	"takedown"	170.7303489	3	"Trehalose"	"R2"	0.529216743	0.8291062307	1	1.258040475375	0.659045751650286	1
"139"	"S1R3_0"	"Lcas"	"S1R3"	"SDR12"	"0"	0.603870968	5	"Trehalose"	"R3"	0.185661003	0.17452134282	1	1.00525072517833	0.173609765652285	1
"140"	"S1R3_0"	"Lreu"	"S1R3"	"SDR12"	"0"	0.603870968	6	"Trehalose"	"R3"	0.009117281	0.00714187011666667	1	1.00525072517833	0.00710456599312543	1
"141"	"S1R3_0"	"Phis"	"S1R3"	"SDR12"	"0"	0.603870968	4	"Trehalose"	"R3"	0.341069208	0.4007563194	1	1.00525072517833	0.398663049289425	1
"142"	"S1R3_0"	"Smit"	"S1R3"	"SDR12"	"0"	0.603870968	4	"Trehalose"	"R3"	0.144633237	0.169944053475	1	1.00525072517833	0.169056384858466	1
"143"	"S1R3_0"	"Ssal"	"S1R3"	"SDR12"	"0"	0.603870968	6	"Trehalose"	"R3"	0.316203896	0.247693051866667	1	1.00525072517833	0.246399276979109	1
"144"	"S1R3_0"	"Vaty"	"S1R3"	"SDR12"	"0"	0.603870968	3	"Trehalose"	"R3"	0.003315375	0.0051940875	1	1.00525072517833	0.00516695722758972	1
"145"	"S1R3_11"	"Lcas"	"S1R3"	"SDR12"	"11"	99.1954014	5	"Trehalose"	"R3"	0.497306258	0.46746788252	1	1.25323594432	0.373008677766297	1
"146"	"S1R3_11"	"Lreu"	"S1R3"	"SDR12"	"11"	99.1954014	6	"Trehalose"	"R3"	0	0	1	1.25323594432	0	1
"147"	"S1R3_11"	"Phis"	"S1R3"	"SDR12"	"11"	99.1954014	4	"Trehalose"	"R3"	0	0	1	1.25323594432	0	1
"148"	"S1R3_11"	"Smit"	"S1R3"	"SDR12"	"11"	99.1954014	4	"Trehalose"	"R3"	0.000414422	0.00048694585	1	1.25323594432	0.000388550816952681	1
"149"	"S1R3_11"	"Ssal"	"S1R3"	"SDR12"	"11"	99.1954014	6	"Trehalose"	"R3"	0.002072109	0.00162315205	1	1.25323594432	0.0012951687647937	1
"150"	"S1R3_11"	"Vaty"	"S1R3"	"SDR12"	"11"	99.1954014	3	"Trehalose"	"R3"	0.500207211	0.7836579639	1	1.25323594432	0.625307602651956	1
"151"	"S1R3_13"	"Lcas"	"S1R3"	"SDR12"	"13"	117.6320853	5	"Trehalose"	"R3"	0.753833402	0.70860339788	1	1.09329050971333	0.648138250158048	1
"152"	"S1R3_13"	"Lreu"	"S1R3"	"SDR12"	"13"	117.6320853	6	"Trehalose"	"R3"	0	0	1	1.09329050971333	0	1
"153"	"S1R3_13"	"Phis"	"S1R3"	"SDR12"	"13"	117.6320853	4	"Trehalose"	"R3"	0	0	1	1.09329050971333	0	1
"154"	"S1R3_13"	"Smit"	"S1R3"	"SDR12"	"13"	117.6320853	4	"Trehalose"	"R3"	0	0	1	1.09329050971333	0	1
"155"	"S1R3_13"	"Ssal"	"S1R3"	"SDR12"	"13"	117.6320853	6	"Trehalose"	"R3"	0.001243266	0.0009738917	1	1.09329050971333	0.000890789494052555	1
"156"	"S1R3_13"	"Vaty"	"S1R3"	"SDR12"	"13"	117.6320853	3	"Trehalose"	"R3"	0.244923332	0.383713220133333	1	1.09329050971333	0.3509709603479	1
"157"	"S1R3_15"	"Lcas"	"S1R3"	"SDR12"	"15"	136.0289722	5	"Trehalose"	"R3"	0.033568172	0.03155408168	1	1.54173504619667	0.0204666046593682	1
"158"	"S1R3_15"	"Lreu"	"S1R3"	"SDR12"	"15"	136.0289722	6	"Trehalose"	"R3"	0	0	1	1.54173504619667	0	1
"159"	"S1R3_15"	"Phis"	"S1R3"	"SDR12"	"15"	136.0289722	4	"Trehalose"	"R3"	0	0	1	1.54173504619667	0	1
"160"	"S1R3_15"	"Smit"	"S1R3"	"SDR12"	"15"	136.0289722	4	"Trehalose"	"R3"	0	0	1	1.54173504619667	0	1
"161"	"S1R3_15"	"Ssal"	"S1R3"	"SDR12"	"15"	136.0289722	6	"Trehalose"	"R3"	0.004973063	0.00389556601666667	1	1.54173504619667	0.00252674156060518	1
"162"	"S1R3_15"	"Vaty"	"S1R3"	"SDR12"	"15"	136.0289722	3	"Trehalose"	"R3"	0.961458765	1.5062853985	1	1.54173504619667	0.977006653780027	1
"163"	"S1R3_18"	"Lcas"	"S1R3"	"SDR12"	"18"	158.2378631	5	"Trehalose"	"R3"	0.90095317	0.8468959798	1	1.00142008566667	0.845695020423126	1
"164"	"S1R3_18"	"Lreu"	"S1R3"	"SDR12"	"18"	158.2378631	6	"Trehalose"	"R3"	0	0	1	1.00142008566667	0	1
"165"	"S1R3_18"	"Phis"	"S1R3"	"SDR12"	"18"	158.2378631	4	"Trehalose"	"R3"	0	0	1	1.00142008566667	0	1
"166"	"S1R3_18"	"Smit"	"S1R3"	"SDR12"	"18"	158.2378631	4	"Trehalose"	"R3"	0	0	1	1.00142008566667	0	1
"167"	"S1R3_18"	"Ssal"	"S1R3"	"SDR12"	"18"	158.2378631	6	"Trehalose"	"R3"	0.000828844	0.000649261133333333	1	1.00142008566667	0.000648340434375357	1
"168"	"S1R3_18"	"Vaty"	"S1R3"	"SDR12"	"18"	158.2378631	3	"Trehalose"	"R3"	0.098217986	0.153874844733333	1	1.00142008566667	0.153656639142499	1
"169"	"S1R3_3"	"Lcas"	"S1R3"	"SDR12"	"3"	27.35347542	5	"Trehalose"	"R3"	0.566514712	0.53252382928	1	1.03326633501333	0.515379056913848	1
"170"	"S1R3_3"	"Lreu"	"S1R3"	"SDR12"	"3"	27.35347542	6	"Trehalose"	"R3"	0	0	1	1.03326633501333	0	1
"171"	"S1R3_3"	"Phis"	"S1R3"	"SDR12"	"3"	27.35347542	4	"Trehalose"	"R3"	0	0	1	1.03326633501333	0	1
"172"	"S1R3_3"	"Smit"	"S1R3"	"SDR12"	"3"	27.35347542	4	"Trehalose"	"R3"	0.007874016	0.0092519688	1	1.03326633501333	0.00895409875120011	1
"173"	"S1R3_3"	"Ssal"	"S1R3"	"SDR12"	"3"	27.35347542	6	"Trehalose"	"R3"	0.223787816	0.175300455866667	1	1.03326633501333	0.169656602490978	1
"174"	"S1R3_3"	"Vaty"	"S1R3"	"SDR12"	"3"	27.35347542	3	"Trehalose"	"R3"	0.201823456	0.316190081066667	1	1.03326633501333	0.306010241843974	1
"175"	"S1R3_6"	"Lcas"	"S1R3"	"SDR12"	"6"	54.65159554	5	"Trehalose"	"R3"	0.418980522	0.39384169068	1	0.935974582305	0.420782463675559	1
"176"	"S1R3_6"	"Lreu"	"S1R3"	"SDR12"	"6"	54.65159554	6	"Trehalose"	"R3"	0.000828844	0.000649261133333333	1	0.935974582305	0.000693673894150432	1
"177"	"S1R3_6"	"Phis"	"S1R3"	"SDR12"	"6"	54.65159554	4	"Trehalose"	"R3"	0	0	1	0.935974582305	0	1
"178"	"S1R3_6"	"Smit"	"S1R3"	"SDR12"	"6"	54.65159554	4	"Trehalose"	"R3"	0.016576875	0.019477828125	1	0.935974582305	0.0208102105476331	1
"179"	"S1R3_6"	"Ssal"	"S1R3"	"SDR12"	"6"	54.65159554	6	"Trehalose"	"R3"	0.460837132	0.360989086733333	1	0.935974582305	0.385682574674555	1
"180"	"S1R3_6"	"Vaty"	"S1R3"	"SDR12"	"6"	54.65159554	3	"Trehalose"	"R3"	0.102776627	0.161016715633333	1	0.935974582305	0.172031077208103	1
"181"	"S1R3_7"	"Lcas"	"S1R3"	"SDR12"	"7"	63.3465478	5	"Trehalose"	"R3"	0.877745545	0.8250808123	1	0.967918220508333	0.85242822670151	1
"182"	"S1R3_7"	"Lreu"	"S1R3"	"SDR12"	"7"	63.3465478	6	"Trehalose"	"R3"	0.000828844	0.000649261133333333	1	0.967918220508333	0.000670780980848106	1
"183"	"S1R3_7"	"Phis"	"S1R3"	"SDR12"	"7"	63.3465478	4	"Trehalose"	"R3"	0	0	1	0.967918220508333	0	1
"184"	"S1R3_7"	"Smit"	"S1R3"	"SDR12"	"7"	63.3465478	4	"Trehalose"	"R3"	0.010774969	0.012660588575	1	0.967918220508333	0.0130802254847015	1
"185"	"S1R3_7"	"Ssal"	"S1R3"	"SDR12"	"7"	63.3465478	6	"Trehalose"	"R3"	0.055946954	0.0438251139666667	1	0.967918220508333	0.0452777032584948	1
"186"	"S1R3_7"	"Vaty"	"S1R3"	"SDR12"	"7"	63.3465478	3	"Trehalose"	"R3"	0.054703688	0.0857024445333333	1	0.967918220508333	0.0885430635744453	1
"187"	"S1R3_9"	"Lcas"	"S1R3"	"SDR12"	"9"	81.2007612	5	"Trehalose"	"R3"	0.66970576	0.6295234144	1	1.13789473688333	0.553235193023434	1
"188"	"S1R3_9"	"Lreu"	"S1R3"	"SDR12"	"9"	81.2007612	6	"Trehalose"	"R3"	0.000414422	0.000324630566666667	1	1.13789473688333	0.00028529050723604	1
"189"	"S1R3_9"	"Phis"	"S1R3"	"SDR12"	"9"	81.2007612	4	"Trehalose"	"R3"	0	0	1	1.13789473688333	0	1
"190"	"S1R3_9"	"Smit"	"S1R3"	"SDR12"	"9"	81.2007612	4	"Trehalose"	"R3"	0.000828844	0.0009738917	1	1.13789473688333	0.000855871521708121	1
"191"	"S1R3_9"	"Ssal"	"S1R3"	"SDR12"	"9"	81.2007612	6	"Trehalose"	"R3"	0.010774969	0.00844039238333333	1	1.13789473688333	0.00741755112291965	1
"192"	"S1R3_9"	"Vaty"	"S1R3"	"SDR12"	"9"	81.2007612	3	"Trehalose"	"R3"	0.318276005	0.498632407833333	1	1.13789473688333	0.438206093824703	1
"193"	"S1R3_takedown"	"Lcas"	"S1R3"	"SDR12"	"takedown"	168.3298631	5	"Trehalose"	"R3"	0.556154165	0.5227849151	1	1.20256112743333	0.434726271433534	1
"194"	"S1R3_takedown"	"Lreu"	"S1R3"	"SDR12"	"takedown"	168.3298631	6	"Trehalose"	"R3"	0	0	1	1.20256112743333	0	1
"195"	"S1R3_takedown"	"Phis"	"S1R3"	"SDR12"	"takedown"	168.3298631	4	"Trehalose"	"R3"	0	0	1	1.20256112743333	0	1
"196"	"S1R3_takedown"	"Smit"	"S1R3"	"SDR12"	"takedown"	168.3298631	4	"Trehalose"	"R3"	0	0	1	1.20256112743333	0	1
"197"	"S1R3_takedown"	"Ssal"	"S1R3"	"SDR12"	"takedown"	168.3298631	6	"Trehalose"	"R3"	0.01989225	0.0155822625	1	1.20256112743333	0.0129575637732925	1
"198"	"S1R3_takedown"	"Vaty"	"S1R3"	"SDR12"	"takedown"	168.3298631	3	"Trehalose"	"R3"	0.423953585	0.664193949833333	1	1.20256112743333	0.552316164793173	1
"199"	"S1R4_0"	"Lcas"	"S1R4"	"SDR12"	"0"	0.468	5	"Trehalose"	"R4"	0.282635723	0.26567757962	1.000000001	1.03781116271167	0.255997997676011	1
"200"	"S1R4_0"	"Lreu"	"S1R4"	"SDR12"	"0"	0.468	6	"Trehalose"	"R4"	0.00870286	0.00681724033333333	1.000000001	1.03781116271167	0.00656886394970041	1
"201"	"S1R4_0"	"Phis"	"S1R4"	"SDR12"	"0"	0.468	4	"Trehalose"	"R4"	0.427683382	0.50252797385	1.000000001	1.03781116271167	0.484219087157397	1
"202"	"S1R4_0"	"Smit"	"S1R4"	"SDR12"	"0"	0.468	4	"Trehalose"	"R4"	0.108164111	0.127092830425	1.000000001	1.03781116271167	0.122462385250244	1
"203"	"S1R4_0"	"Ssal"	"S1R4"	"SDR12"	"0"	0.468	6	"Trehalose"	"R4"	0.172399503	0.13504627735	1.000000001	1.03781116271167	0.130126059732429	1
"204"	"S1R4_0"	"Vaty"	"S1R4"	"SDR12"	"0"	0.468	3	"Trehalose"	"R4"	0.000414422	0.000649261133333333	1.000000001	1.03781116271167	0.000625606234217888	1
"205"	"S1R4_11"	"Lcas"	"S1R4"	"SDR12"	"11"	96.22776913	5	"Trehalose"	"R4"	0.680895151	0.64004144194	1	1.098419670865	0.58269298968032	1
"206"	"S1R4_11"	"Lreu"	"S1R4"	"SDR12"	"11"	96.22776913	6	"Trehalose"	"R4"	0.004558641	0.00357093545	1	1.098419670865	0.00325097551028734	1
"207"	"S1R4_11"	"Phis"	"S1R4"	"SDR12"	"11"	96.22776913	4	"Trehalose"	"R4"	0.000828844	0.0009738917	1	1.098419670865	0.00088662987911812	1
"208"	"S1R4_11"	"Smit"	"S1R4"	"SDR12"	"11"	96.22776913	4	"Trehalose"	"R4"	0.016576875	0.019477828125	1	1.098419670865	0.0177325922337692	1
"209"	"S1R4_11"	"Ssal"	"S1R4"	"SDR12"	"11"	96.22776913	6	"Trehalose"	"R4"	0.039784501	0.0311645257833333	1	1.098419670865	0.0283721482871765	1
"210"	"S1R4_11"	"Vaty"	"S1R4"	"SDR12"	"11"	96.22776913	3	"Trehalose"	"R4"	0.257355988	0.403191047866667	1	1.098419670865	0.367064664409329	1
"211"	"S1R4_13"	"Lcas"	"S1R4"	"SDR12"	"13"	114.255367	5	"Trehalose"	"R4"	0.918358889	0.86325735566	1	0.983857577101667	0.87742105742892	1
"212"	"S1R4_13"	"Lreu"	"S1R4"	"SDR12"	"13"	114.255367	6	"Trehalose"	"R4"	0.002486531	0.00194778261666667	1	0.983857577101667	0.00197974042381684	1
"213"	"S1R4_13"	"Phis"	"S1R4"	"SDR12"	"13"	114.255367	4	"Trehalose"	"R4"	0	0	1	0.983857577101667	0	1
"214"	"S1R4_13"	"Smit"	"S1R4"	"SDR12"	"13"	114.255367	4	"Trehalose"	"R4"	0.003729797	0.004382511475	1	0.983857577101667	0.00445441655072717	1
"215"	"S1R4_13"	"Ssal"	"S1R4"	"SDR12"	"13"	114.255367	6	"Trehalose"	"R4"	0.004973063	0.00389556601666667	1	0.983857577101667	0.00395948164381939	1
"216"	"S1R4_13"	"Vaty"	"S1R4"	"SDR12"	"13"	114.255367	3	"Trehalose"	"R4"	0.07045172	0.110374361333333	1	0.983857577101667	0.112185303952716	1
"217"	"S1R4_15"	"Lcas"	"S1R4"	"SDR12"	"15"	132.1957422	5	"Trehalose"	"R4"	0.897223373	0.84338997062	0.999999999	0.998563336445	0.844603381516655	1
"218"	"S1R4_15"	"Lreu"	"S1R4"	"SDR12"	"15"	132.1957422	6	"Trehalose"	"R4"	0.002486531	0.00194778261666667	0.999999999	0.998563336445	0.00195058495097667	1
"219"	"S1R4_15"	"Phis"	"S1R4"	"SDR12"	"15"	132.1957422	4	"Trehalose"	"R4"	0	0	0.999999999	0.998563336445	0	1
"220"	"S1R4_15"	"Smit"	"S1R4"	"SDR12"	"15"	132.1957422	4	"Trehalose"	"R4"	0.002486531	0.002921673925	0.999999999	0.998563336445	0.002925877426465	1
"221"	"S1R4_15"	"Ssal"	"S1R4"	"SDR12"	"15"	132.1957422	6	"Trehalose"	"R4"	0.003729797	0.00292167431666667	0.999999999	0.998563336445	0.00292587781869517	1
"222"	"S1R4_15"	"Vaty"	"S1R4"	"SDR12"	"15"	132.1957422	3	"Trehalose"	"R4"	0.094073767	0.147382234966667	0.999999999	0.998563336445	0.147594278287208	1
"223"	"S1R4_18"	"Lcas"	"S1R4"	"SDR12"	"18"	155.3682755	5	"Trehalose"	"R4"	0.92291753	0.8675424782	1.000000001	0.987006493833333	0.878963293170079	1
"224"	"S1R4_18"	"Lreu"	"S1R4"	"SDR12"	"18"	155.3682755	6	"Trehalose"	"R4"	0.000828844	0.000649261133333333	1.000000001	0.987006493833333	0.000657808370451277	1
"225"	"S1R4_18"	"Phis"	"S1R4"	"SDR12"	"18"	155.3682755	4	"Trehalose"	"R4"	0	0	1.000000001	0.987006493833333	0	1
"226"	"S1R4_18"	"Smit"	"S1R4"	"SDR12"	"18"	155.3682755	4	"Trehalose"	"R4"	0.000828844	0.0009738917	1.000000001	0.987006493833333	0.000986712555676916	1
"227"	"S1R4_18"	"Ssal"	"S1R4"	"SDR12"	"18"	155.3682755	6	"Trehalose"	"R4"	0.000414422	0.000324630566666667	1.000000001	0.987006493833333	0.000328904185225638	1
"228"	"S1R4_18"	"Vaty"	"S1R4"	"SDR12"	"18"	155.3682755	3	"Trehalose"	"R4"	0.075010361	0.117516232233333	1.000000001	0.987006493833333	0.119063281718567	1
"229"	"S1R4_3"	"Lcas"	"S1R4"	"SDR12"	"3"	25.05936207	5	"Trehalose"	"R4"	0.642353916	0.60381268104	1	0.982169498781667	0.614774417031887	1
"230"	"S1R4_3"	"Lreu"	"S1R4"	"SDR12"	"3"	25.05936207	6	"Trehalose"	"R4"	0	0	1	0.982169498781667	0	1
"231"	"S1R4_3"	"Phis"	"S1R4"	"SDR12"	"3"	25.05936207	4	"Trehalose"	"R4"	0.000828844	0.0009738917	1	0.982169498781667	0.00099157192440619	1
"232"	"S1R4_3"	"Smit"	"S1R4"	"SDR12"	"3"	25.05936207	4	"Trehalose"	"R4"	0.002072109	0.002434728075	1	0.982169498781667	0.00247892861468429	1
"233"	"S1R4_3"	"Ssal"	"S1R4"	"SDR12"	"3"	25.05936207	6	"Trehalose"	"R4"	0.230832988	0.180819173933333	1	0.982169498781667	0.184101801326177	1
"234"	"S1R4_3"	"Vaty"	"S1R4"	"SDR12"	"3"	25.05936207	3	"Trehalose"	"R4"	0.123912143	0.194129024033333	1	0.982169498781667	0.197653281102845	1
"235"	"S1R4_6"	"Lcas"	"S1R4"	"SDR12"	"6"	52.35143066	5	"Trehalose"	"R4"	0.577289681	0.54265230014	1	0.97700787379	0.555422647757124	1
"236"	"S1R4_6"	"Lreu"	"S1R4"	"SDR12"	"6"	52.35143066	6	"Trehalose"	"R4"	0	0	1	0.97700787379	0	1
"237"	"S1R4_6"	"Phis"	"S1R4"	"SDR12"	"6"	52.35143066	4	"Trehalose"	"R4"	0	0	1	0.97700787379	0	1
"238"	"S1R4_6"	"Smit"	"S1R4"	"SDR12"	"6"	52.35143066	4	"Trehalose"	"R4"	0.007459594	0.00876502295	1	0.97700787379	0.00897129202858806	1
"239"	"S1R4_6"	"Ssal"	"S1R4"	"SDR12"	"6"	52.35143066	6	"Trehalose"	"R4"	0.287194364	0.224968918466667	1	0.97700787379	0.230263158058255	1
"240"	"S1R4_6"	"Vaty"	"S1R4"	"SDR12"	"6"	52.35143066	3	"Trehalose"	"R4"	0.128056361	0.200621632233333	1	0.97700787379	0.205342902156033	1
"241"	"S1R4_7"	"Lcas"	"S1R4"	"SDR12"	"7"	60.91823066	5	"Trehalose"	"R4"	0.33029424	0.3104765856	1	1.161333056825	0.267344999589369	1
"242"	"S1R4_7"	"Lreu"	"S1R4"	"SDR12"	"7"	60.91823066	6	"Trehalose"	"R4"	0	0	1	1.161333056825	0	1
"243"	"S1R4_7"	"Phis"	"S1R4"	"SDR12"	"7"	60.91823066	4	"Trehalose"	"R4"	0	0	1	1.161333056825	0	1
"244"	"S1R4_7"	"Smit"	"S1R4"	"SDR12"	"7"	60.91823066	4	"Trehalose"	"R4"	0.003315375	0.003895565625	1	1.161333056825	0.00335439140572662	1
"245"	"S1R4_7"	"Ssal"	"S1R4"	"SDR12"	"7"	60.91823066	6	"Trehalose"	"R4"	0.251554082	0.197050697566667	1	1.161333056825	0.169676301220073	1
"246"	"S1R4_7"	"Vaty"	"S1R4"	"SDR12"	"7"	60.91823066	3	"Trehalose"	"R4"	0.414836303	0.649910208033333	1	1.161333056825	0.559624307784832	1
"247"	"S1R4_9"	"Lcas"	"S1R4"	"SDR12"	"9"	78.48401528	5	"Trehalose"	"R4"	0.689183589	0.64783257366	1.000000001	1.05394529741	0.614673812058373	1
"248"	"S1R4_9"	"Lreu"	"S1R4"	"SDR12"	"9"	78.48401528	6	"Trehalose"	"R4"	0.004144219	0.00324630488333333	1.000000001	1.05394529741	0.00308014551733464	1
"249"	"S1R4_9"	"Phis"	"S1R4"	"SDR12"	"9"	78.48401528	4	"Trehalose"	"R4"	0	0	1.000000001	1.05394529741	0	1
"250"	"S1R4_9"	"Smit"	"S1R4"	"SDR12"	"9"	78.48401528	4	"Trehalose"	"R4"	0.00663075	0.00779113125	1.000000001	1.05394529741	0.00739234879565968	1
"251"	"S1R4_9"	"Ssal"	"S1R4"	"SDR12"	"9"	78.48401528	6	"Trehalose"	"R4"	0.095731455	0.07498963975	1.000000001	1.05394529741	0.0711513585517977	1
"252"	"S1R4_9"	"Vaty"	"S1R4"	"SDR12"	"9"	78.48401528	3	"Trehalose"	"R4"	0.204309988	0.320085647866667	1.000000001	1.05394529741	0.303702335076835	1
"253"	"S1R4_takedown"	"Lcas"	"S1R4"	"SDR12"	"takedown"	166.6434755	5	"Trehalose"	"R4"	0.979693328	0.92091172832	1.000000001	0.947206797561667	0.972239357541187	1
"254"	"S1R4_takedown"	"Lreu"	"S1R4"	"SDR12"	"takedown"	166.6434755	6	"Trehalose"	"R4"	0.000414422	0.000324630566666667	1.000000001	0.947206797561667	0.000342724067756209	1
"255"	"S1R4_takedown"	"Phis"	"S1R4"	"SDR12"	"takedown"	166.6434755	4	"Trehalose"	"R4"	0	0	1.000000001	0.947206797561667	0	1
"256"	"S1R4_takedown"	"Smit"	"S1R4"	"SDR12"	"takedown"	166.6434755	4	"Trehalose"	"R4"	0.003315375	0.003895565625	1.000000001	0.947206797561667	0.0041126875725851	1
"257"	"S1R4_takedown"	"Ssal"	"S1R4"	"SDR12"	"takedown"	166.6434755	6	"Trehalose"	"R4"	0.004973063	0.00389556601666667	1.000000001	0.947206797561667	0.00411268798608157	1
"258"	"S1R4_takedown"	"Vaty"	"S1R4"	"SDR12"	"takedown"	166.6434755	3	"Trehalose"	"R4"	0.011603813	0.0181793070333333	1.000000001	0.947206797561667	0.0191925428323901	1
"259"	"S2R1_0"	"Lcas"	"S2R1"	"SDR12"	"0"	0.375652174	5	"Sucrose"	"R1"	0.076253626	0.07167840844	0.999999999	1.15480798353167	0.0620695470261567	1
"260"	"S2R1_0"	"Lreu"	"S2R1"	"SDR12"	"0"	0.375652174	6	"Sucrose"	"R1"	0.002072109	0.00162315205	0.999999999	1.15480798353167	0.00140556012181006	1
"261"	"S2R1_0"	"Phis"	"S2R1"	"SDR12"	"0"	0.375652174	4	"Sucrose"	"R1"	0.917944467	1.078584748725	0.999999999	1.15480798353167	0.933994884090116	1
"262"	"S2R1_0"	"Smit"	"S2R1"	"SDR12"	"0"	0.375652174	4	"Sucrose"	"R1"	0	0	0.999999999	1.15480798353167	0	1
"263"	"S2R1_0"	"Ssal"	"S2R1"	"SDR12"	"0"	0.375652174	6	"Sucrose"	"R1"	0.003729797	0.00292167431666667	0.999999999	1.15480798353167	0.00253000876191687	1
"264"	"S2R1_0"	"Vaty"	"S2R1"	"SDR12"	"0"	0.375652174	3	"Sucrose"	"R1"	0	0	0.999999999	1.15480798353167	0	1
"265"	"S2R1_11"	"Lcas"	"S2R1"	"SDR12"	"11"	92.45333132	5	"Sucrose"	"R1"	0.680480729	0.63965188526	1	1.05290647912667	0.607510636453258	1
"266"	"S2R1_11"	"Lreu"	"S2R1"	"SDR12"	"11"	92.45333132	6	"Sucrose"	"R1"	0.017405719	0.0136344798833333	1	1.05290647912667	0.0129493740931697	1
"267"	"S2R1_11"	"Phis"	"S2R1"	"SDR12"	"11"	92.45333132	4	"Sucrose"	"R1"	0	0	1	1.05290647912667	0	1
"268"	"S2R1_11"	"Smit"	"S2R1"	"SDR12"	"11"	92.45333132	4	"Sucrose"	"R1"	0	0	1	1.05290647912667	0	1
"269"	"S2R1_11"	"Ssal"	"S2R1"	"SDR12"	"11"	92.45333132	6	"Sucrose"	"R1"	0.094073767	0.0736911174833333	1	1.05290647912667	0.0699882838069877	1
"270"	"S2R1_11"	"Vaty"	"S2R1"	"SDR12"	"11"	92.45333132	3	"Sucrose"	"R1"	0.208039785	0.3259289965	1	1.05290647912667	0.309551705646585	1
"271"	"S2R1_13"	"Lcas"	"S2R1"	"SDR12"	"13"	109.8614656	5	"Sucrose"	"R1"	0.975134687	0.91662660578	0.999999999	0.951686696013333	0.963160050066685	1
"272"	"S2R1_13"	"Lreu"	"S2R1"	"SDR12"	"13"	109.8614656	6	"Sucrose"	"R1"	0.002486531	0.00194778261666667	0.999999999	0.951686696013333	0.00204666370227306	1
"273"	"S2R1_13"	"Phis"	"S2R1"	"SDR12"	"13"	109.8614656	4	"Sucrose"	"R1"	0	0	0.999999999	0.951686696013333	0	1
"274"	"S2R1_13"	"Smit"	"S2R1"	"SDR12"	"13"	109.8614656	4	"Sucrose"	"R1"	0	0	0.999999999	0.951686696013333	0	1
"275"	"S2R1_13"	"Ssal"	"S2R1"	"SDR12"	"13"	109.8614656	6	"Sucrose"	"R1"	0.002486531	0.00194778261666667	0.999999999	0.951686696013333	0.00204666370227306	1
"276"	"S2R1_13"	"Vaty"	"S2R1"	"SDR12"	"13"	109.8614656	3	"Sucrose"	"R1"	0.01989225	0.031164525	0.999999999	0.951686696013333	0.032746622528769	1
"277"	"S2R1_15"	"Lcas"	"S2R1"	"SDR12"	"15"	127.6269689	5	"Sucrose"	"R1"	0.937836718	0.88156651492	1.000000001	0.970839895686667	0.908045207903694	1
"278"	"S2R1_15"	"Lreu"	"S2R1"	"SDR12"	"15"	127.6269689	6	"Sucrose"	"R1"	0.001657688	0.00129852226666667	1.000000001	0.970839895686667	0.00133752462423089	1
"279"	"S2R1_15"	"Phis"	"S2R1"	"SDR12"	"15"	127.6269689	4	"Sucrose"	"R1"	0	0	1.000000001	0.970839895686667	0	1
"280"	"S2R1_15"	"Smit"	"S2R1"	"SDR12"	"15"	127.6269689	4	"Sucrose"	"R1"	0	0	1.000000001	0.970839895686667	0	1
"281"	"S2R1_15"	"Ssal"	"S2R1"	"SDR12"	"15"	127.6269689	6	"Sucrose"	"R1"	0.00870286	0.00681724033333333	1.000000001	0.970839895686667	0.00702200266348918	1
"282"	"S2R1_15"	"Vaty"	"S2R1"	"SDR12"	"15"	127.6269689	3	"Sucrose"	"R1"	0.051802735	0.0811576181666667	1.000000001	0.970839895686667	0.0835952648085858	1
"283"	"S2R1_18"	"Lcas"	"S2R1"	"SDR12"	"18"	158.1193724	5	"Sucrose"	"R1"	0.241193535	0.2267219229	1	1.04089515145	0.217814371201719	1
"284"	"S2R1_18"	"Lreu"	"S2R1"	"SDR12"	"18"	158.1193724	6	"Sucrose"	"R1"	0.002486531	0.00194778261666667	1	1.04089515145	0.00187125726731779	1
"285"	"S2R1_18"	"Phis"	"S2R1"	"SDR12"	"18"	158.1193724	4	"Sucrose"	"R1"	0	0	1	1.04089515145	0	1
"286"	"S2R1_18"	"Smit"	"S2R1"	"SDR12"	"18"	158.1193724	4	"Sucrose"	"R1"	0	0	1	1.04089515145	0	1
"287"	"S2R1_18"	"Ssal"	"S2R1"	"SDR12"	"18"	158.1193724	6	"Sucrose"	"R1"	0.47575632	0.372675784	1	1.04089515145	0.358033932121646	1
"288"	"S2R1_18"	"Vaty"	"S2R1"	"SDR12"	"18"	158.1193724	3	"Sucrose"	"R1"	0.280563614	0.439549661933333	1	1.04089515145	0.422280439409317	1
"289"	"S2R1_3"	"Lcas"	"S2R1"	"SDR12"	"3"	24.70249179	5	"Sucrose"	"R1"	0.498963945	0.4690261083	1	0.897862964666667	0.522380504327993	1
"290"	"S2R1_3"	"Lreu"	"S2R1"	"SDR12"	"3"	24.70249179	6	"Sucrose"	"R1"	0.011603813	0.00908965351666667	1	0.897862964666667	0.0101236534687019	1
"291"	"S2R1_3"	"Phis"	"S2R1"	"SDR12"	"3"	24.70249179	4	"Sucrose"	"R1"	0	0	1	0.897862964666667	0	1
"292"	"S2R1_3"	"Smit"	"S2R1"	"SDR12"	"3"	24.70249179	4	"Sucrose"	"R1"	0	0	1	0.897862964666667	0	1
"293"	"S2R1_3"	"Ssal"	"S2R1"	"SDR12"	"3"	24.70249179	6	"Sucrose"	"R1"	0.443016991	0.347029976283333	1	0.897862964666667	0.386506616198574	1
"294"	"S2R1_3"	"Vaty"	"S2R1"	"SDR12"	"3"	24.70249179	3	"Sucrose"	"R1"	0.046415251	0.0727172265666667	1	0.897862964666667	0.0809892260047312	1
"295"	"S2R1_6"	"Lcas"	"S2R1"	"SDR12"	"6"	50.39159734	5	"Sucrose"	"R1"	0.779113137	0.73236634878	0.999999999	1.05569829996333	0.693726937710742	1
"296"	"S2R1_6"	"Lreu"	"S2R1"	"SDR12"	"6"	50.39159734	6	"Sucrose"	"R1"	0.005801906	0.00454482636666667	0.999999999	1.05569829996333	0.00430504280136145	1
"297"	"S2R1_6"	"Phis"	"S2R1"	"SDR12"	"6"	50.39159734	4	"Sucrose"	"R1"	0	0	0.999999999	1.05569829996333	0	1
"298"	"S2R1_6"	"Smit"	"S2R1"	"SDR12"	"6"	50.39159734	4	"Sucrose"	"R1"	0	0	0.999999999	1.05569829996333	0	1
"299"	"S2R1_6"	"Ssal"	"S2R1"	"SDR12"	"6"	50.39159734	6	"Sucrose"	"R1"	0.023207625	0.01817930625	0.999999999	1.05569829996333	0.0172201719474507	1
"300"	"S2R1_6"	"Vaty"	"S2R1"	"SDR12"	"6"	50.39159734	3	"Sucrose"	"R1"	0.191877331	0.300607818566667	0.999999999	1.05569829996333	0.284747847540445	1
"301"	"S2R1_7"	"Lcas"	"S2R1"	"SDR12"	"7"	58.84959228	5	"Sucrose"	"R1"	0.869457107	0.81728968058	1	0.976033982246667	0.837357812787149	1
"302"	"S2R1_7"	"Lreu"	"S2R1"	"SDR12"	"7"	58.84959228	6	"Sucrose"	"R1"	0.004973063	0.00389556601666667	1	0.976033982246667	0.00399121965784401	1
"303"	"S2R1_7"	"Phis"	"S2R1"	"SDR12"	"7"	58.84959228	4	"Sucrose"	"R1"	0	0	1	0.976033982246667	0	1
"304"	"S2R1_7"	"Smit"	"S2R1"	"SDR12"	"7"	58.84959228	4	"Sucrose"	"R1"	0	0	1	0.976033982246667	0	1
"305"	"S2R1_7"	"Ssal"	"S2R1"	"SDR12"	"7"	58.84959228	6	"Sucrose"	"R1"	0.053460423	0.04187733135	1	0.976033982246667	0.0429056079109104	1
"306"	"S2R1_7"	"Vaty"	"S2R1"	"SDR12"	"7"	58.84959228	3	"Sucrose"	"R1"	0.072109407	0.1129714043	1	0.976033982246667	0.115745359644096	1
"307"	"S2R1_9"	"Lcas"	"S2R1"	"SDR12"	"9"	75.65356501	5	"Sucrose"	"R1"	0.836303357	0.78612515558	1	1.02862411916333	0.764249195536482	1
"308"	"S2R1_9"	"Lreu"	"S2R1"	"SDR12"	"9"	75.65356501	6	"Sucrose"	"R1"	0.00663075	0.0051940875	1	1.02862411916333	0.00504954861861959	1
"309"	"S2R1_9"	"Phis"	"S2R1"	"SDR12"	"9"	75.65356501	4	"Sucrose"	"R1"	0	0	1	1.02862411916333	0	1
"310"	"S2R1_9"	"Smit"	"S2R1"	"SDR12"	"9"	75.65356501	4	"Sucrose"	"R1"	0	0	1	1.02862411916333	0	1
"311"	"S2R1_9"	"Ssal"	"S2R1"	"SDR12"	"9"	75.65356501	6	"Sucrose"	"R1"	0.011189391	0.00876502295	1	1.02862411916333	0.0085211135794962	1
"312"	"S2R1_9"	"Vaty"	"S2R1"	"SDR12"	"9"	75.65356501	3	"Sucrose"	"R1"	0.145876502	0.228539853133333	1	1.02862411916333	0.222180142265402	1
"313"	"S2R1_takedown"	"Lcas"	"S2R1"	"SDR12"	"takedown"	168.5593724	5	"Sucrose"	"R1"	0.51761293	0.4865561542	0.999999999	1.18094073655	0.412007257554198	1
"314"	"S2R1_takedown"	"Lreu"	"S2R1"	"SDR12"	"takedown"	168.5593724	6	"Sucrose"	"R1"	0.022793203	0.0178546756833333	0.999999999	1.18094073655	0.0151190276791484	1
"315"	"S2R1_takedown"	"Phis"	"S2R1"	"SDR12"	"takedown"	168.5593724	4	"Sucrose"	"R1"	0	0	0.999999999	1.18094073655	0	1
"316"	"S2R1_takedown"	"Smit"	"S2R1"	"SDR12"	"takedown"	168.5593724	4	"Sucrose"	"R1"	0	0	0.999999999	1.18094073655	0	1
"317"	"S2R1_takedown"	"Ssal"	"S2R1"	"SDR12"	"takedown"	168.5593724	6	"Sucrose"	"R1"	0.055532532	0.0435004834	0.999999999	1.18094073655	0.0368354499541461	1
"318"	"S2R1_takedown"	"Vaty"	"S2R1"	"SDR12"	"takedown"	168.5593724	3	"Sucrose"	"R1"	0.404061334	0.633029423266667	0.999999999	1.18094073655	0.536038264812508	1
"319"	"S2R2_0"	"Lcas"	"S2R2"	"SDR12"	"0"	0.486	5	"Sucrose"	"R2"	0.05511811	0.0518110234	1	1.155554634775	0.0448364982847291	1
"320"	"S2R2_0"	"Lreu"	"S2R2"	"SDR12"	"0"	0.486	6	"Sucrose"	"R2"	0.00870286	0.00681724033333333	1	1.155554634775	0.00589953960477233	1
"321"	"S2R2_0"	"Phis"	"S2R2"	"SDR12"	"0"	0.486	4	"Sucrose"	"R2"	0.925818483	1.087836717525	1	1.155554634775	0.941397909530097	1
"322"	"S2R2_0"	"Smit"	"S2R2"	"SDR12"	"0"	0.486	4	"Sucrose"	"R2"	0	0	1	1.155554634775	0	1
"323"	"S2R2_0"	"Ssal"	"S2R2"	"SDR12"	"0"	0.486	6	"Sucrose"	"R2"	0.009117281	0.00714187011666667	1	1.155554634775	0.00618046944881777	1
"324"	"S2R2_0"	"Vaty"	"S2R2"	"SDR12"	"0"	0.486	3	"Sucrose"	"R2"	0.001243266	0.0019477834	1	1.155554634775	0.00168558313158361	1
"325"	"S2R2_11"	"Lcas"	"S2R2"	"SDR12"	"11"	98.24966141	5	"Sucrose"	"R2"	0.246581019	0.23178615786	0.999999999	0.957984527126667	0.241951880533194	1
"326"	"S2R2_11"	"Lreu"	"S2R2"	"SDR12"	"11"	98.24966141	6	"Sucrose"	"R2"	0.016991297	0.0133098493166667	0.999999999	0.957984527126667	0.0138935952928046	1
"327"	"S2R2_11"	"Phis"	"S2R2"	"SDR12"	"11"	98.24966141	4	"Sucrose"	"R2"	0	0	0.999999999	0.957984527126667	0	1
"328"	"S2R2_11"	"Smit"	"S2R2"	"SDR12"	"11"	98.24966141	4	"Sucrose"	"R2"	0	0	0.999999999	0.957984527126667	0	1
"329"	"S2R2_11"	"Ssal"	"S2R2"	"SDR12"	"11"	98.24966141	6	"Sucrose"	"R2"	0.562784915	0.440848183416667	0.999999999	0.957984527126667	0.460182989321264	1
"330"	"S2R2_11"	"Vaty"	"S2R2"	"SDR12"	"11"	98.24966141	3	"Sucrose"	"R2"	0.173642768	0.272040336533333	0.999999999	0.957984527126667	0.283971534852737	1
"331"	"S2R2_13"	"Lcas"	"S2R2"	"SDR12"	"13"	115.7135022	5	"Sucrose"	"R2"	0.869871529	0.81767923726	0.999999999	0.997849149276667	0.819441734106533	1
"332"	"S2R2_13"	"Lreu"	"S2R2"	"SDR12"	"13"	115.7135022	6	"Sucrose"	"R2"	0.002072109	0.00162315205	0.999999999	0.997849149276667	0.00162665073290548	1
"333"	"S2R2_13"	"Phis"	"S2R2"	"SDR12"	"13"	115.7135022	4	"Sucrose"	"R2"	0	0	0.999999999	0.997849149276667	0	1
"334"	"S2R2_13"	"Smit"	"S2R2"	"SDR12"	"13"	115.7135022	4	"Sucrose"	"R2"	0	0	0.999999999	0.997849149276667	0	1
"335"	"S2R2_13"	"Ssal"	"S2R2"	"SDR12"	"13"	115.7135022	6	"Sucrose"	"R2"	0.028180688	0.0220748722666667	0.999999999	0.997849149276667	0.0221224543636366	1
"336"	"S2R2_13"	"Vaty"	"S2R2"	"SDR12"	"13"	115.7135022	3	"Sucrose"	"R2"	0.099875673	0.1564718877	0.999999999	0.997849149276667	0.156809160796925	1
"337"	"S2R2_15"	"Lcas"	"S2R2"	"SDR12"	"15"	132.2910942	5	"Sucrose"	"R2"	0.905926233	0.85157065902	1	0.956426302286667	0.890367252535848	1
"338"	"S2R2_15"	"Lreu"	"S2R2"	"SDR12"	"15"	132.2910942	6	"Sucrose"	"R2"	0	0	1	0.956426302286667	0	1
"339"	"S2R2_15"	"Phis"	"S2R2"	"SDR12"	"15"	132.2910942	4	"Sucrose"	"R2"	0	0	1	0.956426302286667	0	1
"340"	"S2R2_15"	"Smit"	"S2R2"	"SDR12"	"15"	132.2910942	4	"Sucrose"	"R2"	0	0	1	0.956426302286667	0	1
"341"	"S2R2_15"	"Ssal"	"S2R2"	"SDR12"	"15"	132.2910942	6	"Sucrose"	"R2"	0.054289266	0.0425265917	1	0.956426302286667	0.0444640549912999	1
"342"	"S2R2_15"	"Vaty"	"S2R2"	"SDR12"	"15"	132.2910942	3	"Sucrose"	"R2"	0.039784501	0.0623290515666667	1	0.956426302286667	0.0651686924728519	1
"343"	"S2R2_18"	"Lcas"	"S2R2"	"SDR12"	"18"	150.5224221	5	"Sucrose"	"R2"	0.345627849	0.32489017806	1	0.958568863243333	0.338932538410155	1
"344"	"S2R2_18"	"Lreu"	"S2R2"	"SDR12"	"18"	150.5224221	6	"Sucrose"	"R2"	0.005801906	0.00454482636666667	1	0.958568863243333	0.0047412622514038	1
"345"	"S2R2_18"	"Phis"	"S2R2"	"SDR12"	"18"	150.5224221	4	"Sucrose"	"R2"	0	0	1	0.958568863243333	0	1
"346"	"S2R2_18"	"Smit"	"S2R2"	"SDR12"	"18"	150.5224221	4	"Sucrose"	"R2"	0	0	1	0.958568863243333	0	1
"347"	"S2R2_18"	"Ssal"	"S2R2"	"SDR12"	"18"	150.5224221	6	"Sucrose"	"R2"	0.493990883	0.386959525016667	1	0.958568863243333	0.403684638480101	1
"348"	"S2R2_18"	"Vaty"	"S2R2"	"SDR12"	"18"	150.5224221	3	"Sucrose"	"R2"	0.154579362	0.2421743338	1	0.958568863243333	0.25264156085834	1
"349"	"S2R2_3"	"Lcas"	"S2R2"	"SDR12"	"3"	27.93837931	5	"Sucrose"	"R2"	0.19602155	0.184260257	1	0.846668738716667	0.217629692197318	1
"350"	"S2R2_3"	"Lreu"	"S2R2"	"SDR12"	"3"	27.93837931	6	"Sucrose"	"R2"	0.009531703	0.00746650068333333	1	0.846668738716667	0.00881868001250482	1
"351"	"S2R2_3"	"Phis"	"S2R2"	"SDR12"	"3"	27.93837931	4	"Sucrose"	"R2"	0.000414422	0.00048694585	1	0.846668738716667	0.00057513148617969	1
"352"	"S2R2_3"	"Smit"	"S2R2"	"SDR12"	"3"	27.93837931	4	"Sucrose"	"R2"	0	0	1	0.846668738716667	0	1
"353"	"S2R2_3"	"Ssal"	"S2R2"	"SDR12"	"3"	27.93837931	6	"Sucrose"	"R2"	0.752590137	0.58952894065	1	0.846668738716667	0.696292320351375	1
"354"	"S2R2_3"	"Vaty"	"S2R2"	"SDR12"	"3"	27.93837931	3	"Sucrose"	"R2"	0.041442188	0.0649260945333333	1	0.846668738716667	0.0766841759526219	1
"355"	"S2R2_6"	"Lcas"	"S2R2"	"SDR12"	"6"	53.33162218	5	"Sucrose"	"R2"	0.878574389	0.82585992566	1	0.96934659461	0.851975887935389	1
"356"	"S2R2_6"	"Lreu"	"S2R2"	"SDR12"	"6"	53.33162218	6	"Sucrose"	"R2"	0.001243266	0.0009738917	1	0.96934659461	0.00100468883412318	1
"357"	"S2R2_6"	"Phis"	"S2R2"	"SDR12"	"6"	53.33162218	4	"Sucrose"	"R2"	0	0	1	0.96934659461	0	1
"358"	"S2R2_6"	"Smit"	"S2R2"	"SDR12"	"6"	53.33162218	4	"Sucrose"	"R2"	0	0	1	0.96934659461	0	1
"359"	"S2R2_6"	"Ssal"	"S2R2"	"SDR12"	"6"	53.33162218	6	"Sucrose"	"R2"	0.058433485	0.0457728965833333	1	0.96934659461	0.0472203614660134	1
"360"	"S2R2_6"	"Vaty"	"S2R2"	"SDR12"	"6"	53.33162218	3	"Sucrose"	"R2"	0.06174886	0.0967398806666667	1	0.96934659461	0.0997990617644748	1
"361"	"S2R2_7"	"Lcas"	"S2R2"	"SDR12"	"7"	61.67489218	5	"Sucrose"	"R2"	0.923746374	0.86832159156	1	0.946882165976667	0.917032364491061	1
"362"	"S2R2_7"	"Lreu"	"S2R2"	"SDR12"	"7"	61.67489218	6	"Sucrose"	"R2"	0.002900953	0.00227241318333333	1	0.946882165976667	0.002399890149995	1
"363"	"S2R2_7"	"Phis"	"S2R2"	"SDR12"	"7"	61.67489218	4	"Sucrose"	"R2"	0	0	1	0.946882165976667	0	1
"364"	"S2R2_7"	"Smit"	"S2R2"	"SDR12"	"7"	61.67489218	4	"Sucrose"	"R2"	0	0	1	0.946882165976667	0	1
"365"	"S2R2_7"	"Ssal"	"S2R2"	"SDR12"	"7"	61.67489218	6	"Sucrose"	"R2"	0.049316204	0.0386310264666667	1	0.946882165976667	0.0407981350317444	1
"366"	"S2R2_7"	"Vaty"	"S2R2"	"SDR12"	"7"	61.67489218	3	"Sucrose"	"R2"	0.024036469	0.0376571347666667	1	0.946882165976667	0.0397696103271995	1
"367"	"S2R2_9"	"Lcas"	"S2R2"	"SDR12"	"9"	79.89558448	5	"Sucrose"	"R2"	0.85909656	0.8075507664	0.999999999	0.999082745116667	0.808292176345913	1
"368"	"S2R2_9"	"Lreu"	"S2R2"	"SDR12"	"9"	79.89558448	6	"Sucrose"	"R2"	0.00663075	0.0051940875	0.999999999	0.999082745116667	0.00519885617621538	1
"369"	"S2R2_9"	"Phis"	"S2R2"	"SDR12"	"9"	79.89558448	4	"Sucrose"	"R2"	0	0	0.999999999	0.999082745116667	0	1
"370"	"S2R2_9"	"Smit"	"S2R2"	"SDR12"	"9"	79.89558448	4	"Sucrose"	"R2"	0	0	0.999999999	0.999082745116667	0	1
"371"	"S2R2_9"	"Ssal"	"S2R2"	"SDR12"	"9"	79.89558448	6	"Sucrose"	"R2"	0.030667219	0.0240226548833333	0.999999999	0.999082745116667	0.0240447100110093	1
"372"	"S2R2_9"	"Vaty"	"S2R2"	"SDR12"	"9"	79.89558448	3	"Sucrose"	"R2"	0.10360547	0.162315236333333	0.999999999	0.999082745116667	0.162464257466862	1
"373"	"S2R2_takedown"	"Lcas"	"S2R2"	"SDR12"	"takedown"	159.773055	5	"Sucrose"	"R2"	0.230832988	0.21698300872	1	0.941882856503333	0.230371544849571	1
"374"	"S2R2_takedown"	"Lreu"	"S2R2"	"SDR12"	"takedown"	159.773055	6	"Sucrose"	"R2"	0.014090344	0.0110374361333333	1	0.941882856503333	0.0117184807613008	1
"375"	"S2R2_takedown"	"Phis"	"S2R2"	"SDR12"	"takedown"	159.773055	4	"Sucrose"	"R2"	0	0	1	0.941882856503333	0	1
"376"	"S2R2_takedown"	"Smit"	"S2R2"	"SDR12"	"takedown"	159.773055	4	"Sucrose"	"R2"	0	0	1	0.941882856503333	0	1
"377"	"S2R2_takedown"	"Ssal"	"S2R2"	"SDR12"	"takedown"	159.773055	6	"Sucrose"	"R2"	0.598839619	0.469091034883333	1	0.941882856503333	0.498035431523616	1
"378"	"S2R2_takedown"	"Vaty"	"S2R2"	"SDR12"	"takedown"	159.773055	3	"Sucrose"	"R2"	0.156237049	0.244771376766667	1	0.941882856503333	0.259874542865512	1
"379"	"S2R3_0"	"Lcas"	"S2R3"	"SDR12"	"0"	0.437468354	5	"Sucrose"	"R3"	0.111893908	0.10518027352	1	1.14610788787	0.0917717037228264	1
"380"	"S2R3_0"	"Lreu"	"S2R3"	"SDR12"	"0"	0.437468354	6	"Sucrose"	"R3"	0.004144219	0.00324630488333333	1	1.14610788787	0.00283246011801426	1
"381"	"S2R3_0"	"Phis"	"S2R3"	"SDR12"	"0"	0.437468354	4	"Sucrose"	"R3"	0.881475342	1.03573352685	1	1.14610788787	0.90369636036174	1
"382"	"S2R3_0"	"Smit"	"S2R3"	"SDR12"	"0"	0.437468354	4	"Sucrose"	"R3"	0	0	1	1.14610788787	0	1
"383"	"S2R3_0"	"Ssal"	"S2R3"	"SDR12"	"0"	0.437468354	6	"Sucrose"	"R3"	0.002486531	0.00194778261666667	1	1.14610788787	0.00169947579741952	1
"384"	"S2R3_0"	"Vaty"	"S2R3"	"SDR12"	"0"	0.437468354	3	"Sucrose"	"R3"	0	0	1	1.14610788787	0	1
"385"	"S2R3_11"	"Lcas"	"S2R3"	"SDR12"	"11"	93.65684964	5	"Sucrose"	"R3"	0.938665562	0.88234562828	1	0.972917529746667	0.906906907628388	1
"386"	"S2R3_11"	"Lreu"	"S2R3"	"SDR12"	"11"	93.65684964	6	"Sucrose"	"R3"	0.000828844	0.000649261133333333	1	0.972917529746667	0.00066733419172989	1
"387"	"S2R3_11"	"Phis"	"S2R3"	"SDR12"	"11"	93.65684964	4	"Sucrose"	"R3"	0	0	1	0.972917529746667	0	1
"388"	"S2R3_11"	"Smit"	"S2R3"	"SDR12"	"11"	93.65684964	4	"Sucrose"	"R3"	0	0	1	0.972917529746667	0	1
"389"	"S2R3_11"	"Ssal"	"S2R3"	"SDR12"	"11"	93.65684964	6	"Sucrose"	"R3"	0.006216328	0.00486945693333333	1	0.972917529746667	0.00500500482769723	1
"390"	"S2R3_11"	"Vaty"	"S2R3"	"SDR12"	"11"	93.65684964	3	"Sucrose"	"R3"	0.054289266	0.0850531834	1	0.972917529746667	0.0874207533521845	1
"391"	"S2R3_13"	"Lcas"	"S2R3"	"SDR12"	"13"	110.4255445	5	"Sucrose"	"R3"	0.942395358	0.88585163652	0.999999999	0.946882165036667	0.935545804145225	1
"392"	"S2R3_13"	"Lreu"	"S2R3"	"SDR12"	"13"	110.4255445	6	"Sucrose"	"R3"	0.003315375	0.00259704375	0.999999999	0.946882165036667	0.00274273172089944	1
"393"	"S2R3_13"	"Phis"	"S2R3"	"SDR12"	"13"	110.4255445	4	"Sucrose"	"R3"	0	0	0.999999999	0.946882165036667	0	1
"394"	"S2R3_13"	"Smit"	"S2R3"	"SDR12"	"13"	110.4255445	4	"Sucrose"	"R3"	0	0	0.999999999	0.946882165036667	0	1
"395"	"S2R3_13"	"Ssal"	"S2R3"	"SDR12"	"13"	110.4255445	6	"Sucrose"	"R3"	0.033982594	0.0266196986333333	0.999999999	0.946882165036667	0.0281130003460383	1
"396"	"S2R3_13"	"Vaty"	"S2R3"	"SDR12"	"13"	110.4255445	3	"Sucrose"	"R3"	0.020306672	0.0318137861333333	0.999999999	0.946882165036667	0.0335984637878372	1
"397"	"S2R3_15"	"Lcas"	"S2R3"	"SDR12"	"15"	126.7890053	5	"Sucrose"	"R3"	0.973891421	0.91545793574	0.999999999	0.948570243356667	0.965092403173545	1
"398"	"S2R3_15"	"Lreu"	"S2R3"	"SDR12"	"15"	126.7890053	6	"Sucrose"	"R3"	0.000828844	0.000649261133333333	0.999999999	0.948570243356667	0.000684462893370785	1
"399"	"S2R3_15"	"Phis"	"S2R3"	"SDR12"	"15"	126.7890053	4	"Sucrose"	"R3"	0	0	0.999999999	0.948570243356667	0	1
"400"	"S2R3_15"	"Smit"	"S2R3"	"SDR12"	"15"	126.7890053	4	"Sucrose"	"R3"	0	0	0.999999999	0.948570243356667	0	1
"401"	"S2R3_15"	"Ssal"	"S2R3"	"SDR12"	"15"	126.7890053	6	"Sucrose"	"R3"	0.009117281	0.00714187011666667	0.999999999	0.948570243356667	0.0075290893496659	1
"402"	"S2R3_15"	"Vaty"	"S2R3"	"SDR12"	"15"	126.7890053	3	"Sucrose"	"R3"	0.016162453	0.0253211763666667	0.999999999	0.948570243356667	0.0266940445834182	1
"403"	"S2R3_18"	"Lcas"	"S2R3"	"SDR12"	"18"	153.1416267	5	"Sucrose"	"R3"	0.877745545	0.8250808123	1	1.00687387793333	0.819448026592492	1
"404"	"S2R3_18"	"Lreu"	"S2R3"	"SDR12"	"18"	153.1416267	6	"Sucrose"	"R3"	0.003315375	0.00259704375	1	1.00687387793333	0.00257931386136522	1
"405"	"S2R3_18"	"Phis"	"S2R3"	"SDR12"	"18"	153.1416267	4	"Sucrose"	"R3"	0	0	1	1.00687387793333	0	1
"406"	"S2R3_18"	"Smit"	"S2R3"	"SDR12"	"18"	153.1416267	4	"Sucrose"	"R3"	0	0	1	1.00687387793333	0	1
"407"	"S2R3_18"	"Ssal"	"S2R3"	"SDR12"	"18"	153.1416267	6	"Sucrose"	"R3"	0.009117281	0.00714187011666667	1	1.00687387793333	0.00709311292425797	1
"408"	"S2R3_18"	"Vaty"	"S2R3"	"SDR12"	"18"	153.1416267	3	"Sucrose"	"R3"	0.109821799	0.172054151766667	1	1.00687387793333	0.170879546621884	1
"409"	"S2R3_3"	"Lcas"	"S2R3"	"SDR12"	"3"	25.9525168	5	"Sucrose"	"R3"	0.789888106	0.74249481964	1.000000001	1.06193120715667	0.699192955848843	1
"410"	"S2R3_3"	"Lreu"	"S2R3"	"SDR12"	"3"	25.9525168	6	"Sucrose"	"R3"	0.003315375	0.00259704375	1.000000001	1.06193120715667	0.00244558567682893	1
"411"	"S2R3_3"	"Phis"	"S2R3"	"SDR12"	"3"	25.9525168	4	"Sucrose"	"R3"	0	0	1.000000001	1.06193120715667	0	1
"412"	"S2R3_3"	"Smit"	"S2R3"	"SDR12"	"3"	25.9525168	4	"Sucrose"	"R3"	0.000828844	0.0009738917	1.000000001	1.06193120715667	0.000917094905429521	1
"413"	"S2R3_3"	"Ssal"	"S2R3"	"SDR12"	"3"	25.9525168	6	"Sucrose"	"R3"	0.00870286	0.00681724033333333	1.000000001	1.06193120715667	0.00641966286270706	1
"414"	"S2R3_3"	"Vaty"	"S2R3"	"SDR12"	"3"	25.9525168	3	"Sucrose"	"R3"	0.197264816	0.309048211733333	1.000000001	1.06193120715667	0.291024700706191	1
"415"	"S2R3_6"	"Lcas"	"S2R3"	"SDR12"	"6"	51.2897143	5	"Sucrose"	"R3"	0.722751761	0.67938665534	0.999999999	0.944934382106667	0.718977601201635	1
"416"	"S2R3_6"	"Lreu"	"S2R3"	"SDR12"	"6"	51.2897143	6	"Sucrose"	"R3"	0.002900953	0.00227241318333333	0.999999999	0.944934382106667	0.00240483701975913	1
"417"	"S2R3_6"	"Phis"	"S2R3"	"SDR12"	"6"	51.2897143	4	"Sucrose"	"R3"	0	0	0.999999999	0.944934382106667	0	1
"418"	"S2R3_6"	"Smit"	"S2R3"	"SDR12"	"6"	51.2897143	4	"Sucrose"	"R3"	0	0	0.999999999	0.944934382106667	0	1
"419"	"S2R3_6"	"Ssal"	"S2R3"	"SDR12"	"6"	51.2897143	6	"Sucrose"	"R3"	0.212598425	0.166535432916667	0.999999999	0.944934382106667	0.176240208918409	1
"420"	"S2R3_6"	"Vaty"	"S2R3"	"SDR12"	"6"	51.2897143	3	"Sucrose"	"R3"	0.06174886	0.0967398806666667	0.999999999	0.944934382106667	0.102377352860197	1
"421"	"S2R3_7"	"Lcas"	"S2R3"	"SDR12"	"7"	59.90966366	5	"Sucrose"	"R3"	0.474927476	0.44643182744	1	0.967463738106667	0.461445540391695	1
"422"	"S2R3_7"	"Lreu"	"S2R3"	"SDR12"	"7"	59.90966366	6	"Sucrose"	"R3"	0.018234563	0.0142837410166667	1	0.967463738106667	0.0147641099651136	1
"423"	"S2R3_7"	"Phis"	"S2R3"	"SDR12"	"7"	59.90966366	4	"Sucrose"	"R3"	0	0	1	0.967463738106667	0	1
"424"	"S2R3_7"	"Smit"	"S2R3"	"SDR12"	"7"	59.90966366	4	"Sucrose"	"R3"	0	0	1	0.967463738106667	0	1
"425"	"S2R3_7"	"Ssal"	"S2R3"	"SDR12"	"7"	59.90966366	6	"Sucrose"	"R3"	0.366763365	0.28729796925	1	0.967463738106667	0.296959935482692	1
"426"	"S2R3_7"	"Vaty"	"S2R3"	"SDR12"	"7"	59.90966366	3	"Sucrose"	"R3"	0.140074596	0.2194502004	1	0.967463738106667	0.226830414160499	1
"427"	"S2R3_9"	"Lcas"	"S2R3"	"SDR12"	"9"	76.73494117	5	"Sucrose"	"R3"	0.804392872	0.75612929968	1.000000001	0.981747480063333	0.770187156101711	1
"428"	"S2R3_9"	"Lreu"	"S2R3"	"SDR12"	"9"	76.73494117	6	"Sucrose"	"R3"	0.007459594	0.00584334863333333	1.000000001	0.981747480063333	0.00595198740205208	1
"429"	"S2R3_9"	"Phis"	"S2R3"	"SDR12"	"9"	76.73494117	4	"Sucrose"	"R3"	0	0	1.000000001	0.981747480063333	0	1
"430"	"S2R3_9"	"Smit"	"S2R3"	"SDR12"	"9"	76.73494117	4	"Sucrose"	"R3"	0	0	1.000000001	0.981747480063333	0	1
"431"	"S2R3_9"	"Ssal"	"S2R3"	"SDR12"	"9"	76.73494117	6	"Sucrose"	"R3"	0.095731455	0.07498963975	1.000000001	0.981747480063333	0.0763838372624724	1
"432"	"S2R3_9"	"Vaty"	"S2R3"	"SDR12"	"9"	76.73494117	3	"Sucrose"	"R3"	0.09241608	0.144785192	1.000000001	0.981747480063333	0.147477019233764	1
"433"	"S2R3_takedown"	"Lcas"	"S2R3"	"SDR12"	"takedown"	164.1311004	5	"Sucrose"	"R3"	0.402818069	0.37864898486	1.000000001	1.05550352366	0.358737774315542	1
"434"	"S2R3_takedown"	"Lreu"	"S2R3"	"SDR12"	"takedown"	164.1311004	6	"Sucrose"	"R3"	0.158723581	0.124333471783333	1.000000001	1.05550352366	0.117795411380724	1
"435"	"S2R3_takedown"	"Phis"	"S2R3"	"SDR12"	"takedown"	164.1311004	4	"Sucrose"	"R3"	0	0	1.000000001	1.05550352366	0	1
"436"	"S2R3_takedown"	"Smit"	"S2R3"	"SDR12"	"takedown"	164.1311004	4	"Sucrose"	"R3"	0	0	1.000000001	1.05550352366	0	1
"437"	"S2R3_takedown"	"Ssal"	"S2R3"	"SDR12"	"takedown"	164.1311004	6	"Sucrose"	"R3"	0.171570659	0.134397016216667	1.000000001	1.05550352366	0.127329765561217	1
"438"	"S2R3_takedown"	"Vaty"	"S2R3"	"SDR12"	"takedown"	164.1311004	3	"Sucrose"	"R3"	0.266887692	0.4181240508	1.000000001	1.05550352366	0.396137048742517	1
"439"	"S2R4_0"	"Lcas"	"S2R4"	"SDR12"	"0"	0.455696203	5	"Sucrose"	"R4"	0.106092002	0.09972648188	1	1.14390040072167	0.0871810883334636	1
"440"	"S2R4_0"	"Lreu"	"S2R4"	"SDR12"	"0"	0.455696203	6	"Sucrose"	"R4"	0.002900953	0.00227241318333333	1	1.14390040072167	0.00198654811371664	1
"441"	"S2R4_0"	"Phis"	"S2R4"	"SDR12"	"0"	0.455696203	4	"Sucrose"	"R4"	0.878159967	1.031837961225	1	1.14390040072167	0.90203479304145	1
"442"	"S2R4_0"	"Smit"	"S2R4"	"SDR12"	"0"	0.455696203	4	"Sucrose"	"R4"	0	0	1	1.14390040072167	0	1
"443"	"S2R4_0"	"Ssal"	"S2R4"	"SDR12"	"0"	0.455696203	6	"Sucrose"	"R4"	0.012847078	0.0100635444333333	1	1.14390040072167	0.00879757051137006	1
"444"	"S2R4_0"	"Vaty"	"S2R4"	"SDR12"	"0"	0.455696203	3	"Sucrose"	"R4"	0	0	1	1.14390040072167	0	1
"445"	"S2R4_11"	"Lcas"	"S2R4"	"SDR12"	"11"	94.05011128	5	"Sucrose"	"R4"	0.953170327	0.89598010738	0.999999999	0.951167287263333	0.941979522821778	1
"446"	"S2R4_11"	"Lreu"	"S2R4"	"SDR12"	"11"	94.05011128	6	"Sucrose"	"R4"	0.000414422	0.000324630566666667	0.999999999	0.951167287263333	0.000341297026310359	1
"447"	"S2R4_11"	"Phis"	"S2R4"	"SDR12"	"11"	94.05011128	4	"Sucrose"	"R4"	0	0	0.999999999	0.951167287263333	0	1
"448"	"S2R4_11"	"Smit"	"S2R4"	"SDR12"	"11"	94.05011128	4	"Sucrose"	"R4"	0	0	0.999999999	0.951167287263333	0	1
"449"	"S2R4_11"	"Ssal"	"S2R4"	"SDR12"	"11"	94.05011128	6	"Sucrose"	"R4"	0.022793203	0.0178546756833333	0.999999999	0.951167287263333	0.0187713306822233	1
"450"	"S2R4_11"	"Vaty"	"S2R4"	"SDR12"	"11"	94.05011128	3	"Sucrose"	"R4"	0.023622047	0.0370078736333333	0.999999999	0.951167287263333	0.0389078494696881	1
"451"	"S2R4_13"	"Lcas"	"S2R4"	"SDR12"	"13"	110.6617957	5	"Sucrose"	"R4"	0.985080812	0.92597596328	0.999999999	0.947726204196667	0.977050079632331	1
"452"	"S2R4_13"	"Lreu"	"S2R4"	"SDR12"	"13"	110.6617957	6	"Sucrose"	"R4"	0	0	0.999999999	0.947726204196667	0	1
"453"	"S2R4_13"	"Phis"	"S2R4"	"SDR12"	"13"	110.6617957	4	"Sucrose"	"R4"	0	0	0.999999999	0.947726204196667	0	1
"454"	"S2R4_13"	"Smit"	"S2R4"	"SDR12"	"13"	110.6617957	4	"Sucrose"	"R4"	0	0	0.999999999	0.947726204196667	0	1
"455"	"S2R4_13"	"Ssal"	"S2R4"	"SDR12"	"13"	110.6617957	6	"Sucrose"	"R4"	0.002072109	0.00162315205	0.999999999	0.947726204196667	0.00171268035305181	1
"456"	"S2R4_13"	"Vaty"	"S2R4"	"SDR12"	"13"	110.6617957	3	"Sucrose"	"R4"	0.012847078	0.0201270888666667	0.999999999	0.947726204196667	0.0212372400146171	1
"457"	"S2R4_15"	"Lcas"	"S2R4"	"SDR12"	"15"	126.7081573	5	"Sucrose"	"R4"	0.968918359	0.91078325746	1	0.952335958243333	0.956367602815312	1
"458"	"S2R4_15"	"Lreu"	"S2R4"	"SDR12"	"15"	126.7081573	6	"Sucrose"	"R4"	0	0	1	0.952335958243333	0	1
"459"	"S2R4_15"	"Phis"	"S2R4"	"SDR12"	"15"	126.7081573	4	"Sucrose"	"R4"	0	0	1	0.952335958243333	0	1
"460"	"S2R4_15"	"Smit"	"S2R4"	"SDR12"	"15"	126.7081573	4	"Sucrose"	"R4"	0	0	1	0.952335958243333	0	1
"461"	"S2R4_15"	"Ssal"	"S2R4"	"SDR12"	"15"	126.7081573	6	"Sucrose"	"R4"	0.009117281	0.00714187011666667	1	0.952335958243333	0.00749931791910963	1
"462"	"S2R4_15"	"Vaty"	"S2R4"	"SDR12"	"15"	126.7081573	3	"Sucrose"	"R4"	0.02196436	0.0344108306666667	1	0.952335958243333	0.0361330792655781	1
"463"	"S2R4_18"	"Lcas"	"S2R4"	"SDR12"	"18"	153.4756666	5	"Sucrose"	"R4"	0.883547451	0.83053460394	1	1.00908136469	0.823060095055019	1
"464"	"S2R4_18"	"Lreu"	"S2R4"	"SDR12"	"18"	153.4756666	6	"Sucrose"	"R4"	0.000414422	0.000324630566666667	1	1.00908136469	0.000321709009824393	1
"465"	"S2R4_18"	"Phis"	"S2R4"	"SDR12"	"18"	153.4756666	4	"Sucrose"	"R4"	0	0	1	1.00908136469	0	1
"466"	"S2R4_18"	"Smit"	"S2R4"	"SDR12"	"18"	153.4756666	4	"Sucrose"	"R4"	0	0	1	1.00908136469	0	1
"467"	"S2R4_18"	"Ssal"	"S2R4"	"SDR12"	"18"	153.4756666	6	"Sucrose"	"R4"	0.004558641	0.00357093545	1	1.00908136469	0.0035387983317847	1
"468"	"S2R4_18"	"Vaty"	"S2R4"	"SDR12"	"18"	153.4756666	3	"Sucrose"	"R4"	0.111479486	0.174651194733333	1	1.00908136469	0.173079397603372	1
"469"	"S2R4_3"	"Lcas"	"S2R4"	"SDR12"	"3"	25.4982103	5	"Sucrose"	"R4"	0.61458765	0.577712391	1	1.10442533501667	0.52308868031471	1
"470"	"S2R4_3"	"Lreu"	"S2R4"	"SDR12"	"3"	25.4982103	6	"Sucrose"	"R4"	0.0132615	0.010388175	1	1.10442533501667	0.00940595499816494	1
"471"	"S2R4_3"	"Phis"	"S2R4"	"SDR12"	"3"	25.4982103	4	"Sucrose"	"R4"	0.000414422	0.00048694585	1	1.10442533501667	0.000440904273526695	1
"472"	"S2R4_3"	"Smit"	"S2R4"	"SDR12"	"3"	25.4982103	4	"Sucrose"	"R4"	0	0	1	1.10442533501667	0	1
"473"	"S2R4_3"	"Ssal"	"S2R4"	"SDR12"	"3"	25.4982103	6	"Sucrose"	"R4"	0.084956486	0.0665492473666667	1	1.10442533501667	0.0602569003595543	1
"474"	"S2R4_3"	"Vaty"	"S2R4"	"SDR12"	"3"	25.4982103	3	"Sucrose"	"R4"	0.286779942	0.4492885758	1	1.10442533501667	0.406807560054044	1
"475"	"S2R4_6"	"Lcas"	"S2R4"	"SDR12"	"6"	51.61979751	5	"Sucrose"	"R4"	0.795690012	0.74794861128	0.999999999	0.96642491998	0.773933490141664	1
"476"	"S2R4_6"	"Lreu"	"S2R4"	"SDR12"	"6"	51.61979751	6	"Sucrose"	"R4"	0.002072109	0.00162315205	0.999999999	0.96642491998	0.001679542835085	1
"477"	"S2R4_6"	"Phis"	"S2R4"	"SDR12"	"6"	51.61979751	4	"Sucrose"	"R4"	0	0	0.999999999	0.96642491998	0	1
"478"	"S2R4_6"	"Smit"	"S2R4"	"SDR12"	"6"	51.61979751	4	"Sucrose"	"R4"	0	0	0.999999999	0.96642491998	0	1
"479"	"S2R4_6"	"Ssal"	"S2R4"	"SDR12"	"6"	51.61979751	6	"Sucrose"	"R4"	0.127641939	0.09998618555	0.999999999	0.96642491998	0.103459858580705	1
"480"	"S2R4_6"	"Vaty"	"S2R4"	"SDR12"	"6"	51.61979751	3	"Sucrose"	"R4"	0.074595939	0.1168669711	0.999999999	0.96642491998	0.120927108442546	1
"481"	"S2R4_7"	"Lcas"	"S2R4"	"SDR12"	"7"	60.1117712	5	"Sucrose"	"R4"	0.911728139	0.85702445066	0.999999999	0.95506285281	0.897348743214596	1
"482"	"S2R4_7"	"Lreu"	"S2R4"	"SDR12"	"7"	60.1117712	6	"Sucrose"	"R4"	0.003729797	0.00292167431666667	0.999999999	0.95506285281	0.00305914349832629	1
"483"	"S2R4_7"	"Phis"	"S2R4"	"SDR12"	"7"	60.1117712	4	"Sucrose"	"R4"	0	0	0.999999999	0.95506285281	0	1
"484"	"S2R4_7"	"Smit"	"S2R4"	"SDR12"	"7"	60.1117712	4	"Sucrose"	"R4"	0	0	0.999999999	0.95506285281	0	1
"485"	"S2R4_7"	"Ssal"	"S2R4"	"SDR12"	"7"	60.1117712	6	"Sucrose"	"R4"	0.047658516	0.0373325042	0.999999999	0.95506285281	0.0390890548094921	1
"486"	"S2R4_7"	"Vaty"	"S2R4"	"SDR12"	"7"	60.1117712	3	"Sucrose"	"R4"	0.036883547	0.0577842236333333	0.999999999	0.95506285281	0.0605030584775858	1
"487"	"S2R4_9"	"Lcas"	"S2R4"	"SDR12"	"9"	77.07043517	5	"Sucrose"	"R4"	0.850393701	0.79937007894	1	0.97596905629	0.819052687980381	1
"488"	"S2R4_9"	"Lreu"	"S2R4"	"SDR12"	"9"	77.07043517	6	"Sucrose"	"R4"	0.003729797	0.00292167431666667	1	0.97596905629	0.0029936136784633	1
"489"	"S2R4_9"	"Phis"	"S2R4"	"SDR12"	"9"	77.07043517	4	"Sucrose"	"R4"	0	0	1	0.97596905629	0	1
"490"	"S2R4_9"	"Smit"	"S2R4"	"SDR12"	"9"	77.07043517	4	"Sucrose"	"R4"	0	0	1	0.97596905629	0	1
"491"	"S2R4_9"	"Ssal"	"S2R4"	"SDR12"	"9"	77.07043517	6	"Sucrose"	"R4"	0.070037298	0.0548625501	1	0.97596905629	0.0562134114257185	1
"492"	"S2R4_9"	"Vaty"	"S2R4"	"SDR12"	"9"	77.07043517	3	"Sucrose"	"R4"	0.075839204	0.118814752933333	1	0.97596905629	0.121740286915437	1
"493"	"S2R4_takedown"	"Lcas"	"S2R4"	"SDR12"	"takedown"	163.7809569	5	"Sucrose"	"R4"	0.495234148	0.46552009912	1	1.19691255667	0.388934092574942	1
"494"	"S2R4_takedown"	"Lreu"	"S2R4"	"SDR12"	"takedown"	163.7809569	6	"Sucrose"	"R4"	0.001657688	0.00129852226666667	1	1.19691255667	0.00108489317739247	1
"495"	"S2R4_takedown"	"Phis"	"S2R4"	"SDR12"	"takedown"	163.7809569	4	"Sucrose"	"R4"	0	0	1	1.19691255667	0	1
"496"	"S2R4_takedown"	"Smit"	"S2R4"	"SDR12"	"takedown"	163.7809569	4	"Sucrose"	"R4"	0	0	1	1.19691255667	0	1
"497"	"S2R4_takedown"	"Ssal"	"S2R4"	"SDR12"	"takedown"	163.7809569	6	"Sucrose"	"R4"	0.074181517	0.0581088549833333	1	1.19691255667	0.0485489559446192	1
"498"	"S2R4_takedown"	"Vaty"	"S2R4"	"SDR12"	"takedown"	163.7809569	3	"Sucrose"	"R4"	0.428926647	0.6719850803	1	1.19691255667	0.561432058303047	1
"499"	"S3R1_0"	"Lcas"	"S3R1"	"SDR12"	"0"	0.45	5	"HFCS"	"R1"	0.126398674	0.11881475356	1	1.13782981092667	0.104422254030447	1
"500"	"S3R1_0"	"Lreu"	"S3R1"	"SDR12"	"0"	0.45	6	"HFCS"	"R1"	0.009531703	0.00746650068333333	1	1.13782981092667	0.00656205401865196	1
"501"	"S3R1_0"	"Phis"	"S3R1"	"SDR12"	"0"	0.45	4	"HFCS"	"R1"	0.847078326	0.99531703305	1	1.13782981092667	0.874750356768556	1
"502"	"S3R1_0"	"Smit"	"S3R1"	"SDR12"	"0"	0.45	4	"HFCS"	"R1"	0	0	1	1.13782981092667	0	1
"503"	"S3R1_0"	"Ssal"	"S3R1"	"SDR12"	"0"	0.45	6	"HFCS"	"R1"	0.0132615	0.010388175	1	1.13782981092667	0.0091298144065497	1
"504"	"S3R1_0"	"Vaty"	"S3R1"	"SDR12"	"0"	0.45	3	"HFCS"	"R1"	0.003729797	0.00584334863333333	1	1.13782981092667	0.00513552077579547	1
"505"	"S3R1_11"	"Lcas"	"S3R1"	"SDR12"	"11"	93.38549561	5	"HFCS"	"R1"	0.81268131	0.7639204314	1	1.04927061725	0.728049007416347	1
"506"	"S3R1_11"	"Lreu"	"S3R1"	"SDR12"	"11"	93.38549561	6	"HFCS"	"R1"	0.002486531	0.00194778261666667	1	1.04927061725	0.00185632055700897	1
"507"	"S3R1_11"	"Phis"	"S3R1"	"SDR12"	"11"	93.38549561	4	"HFCS"	"R1"	0	0	1	1.04927061725	0	1
"508"	"S3R1_11"	"Smit"	"S3R1"	"SDR12"	"11"	93.38549561	4	"HFCS"	"R1"	0	0	1	1.04927061725	0	1
"509"	"S3R1_11"	"Ssal"	"S3R1"	"SDR12"	"11"	93.38549561	6	"HFCS"	"R1"	0.007874016	0.0061679792	1	1.04927061725	0.0058783493015038	1
"510"	"S3R1_11"	"Vaty"	"S3R1"	"SDR12"	"11"	93.38549561	3	"HFCS"	"R1"	0.176958143	0.277234424033333	1	1.04927061725	0.26421632272514	1
"511"	"S3R1_13"	"Lcas"	"S3R1"	"SDR12"	"13"	110.5650572	5	"HFCS"	"R1"	0.912556983	0.85780356402	1.000000001	0.979539992836667	0.875720818234151	1
"512"	"S3R1_13"	"Lreu"	"S3R1"	"SDR12"	"13"	110.5650572	6	"HFCS"	"R1"	0.001657688	0.00129852226666667	1.000000001	0.979539992836667	0.00132564497229588	1
"513"	"S3R1_13"	"Phis"	"S3R1"	"SDR12"	"13"	110.5650572	4	"HFCS"	"R1"	0	0	1.000000001	0.979539992836667	0	1
"514"	"S3R1_13"	"Smit"	"S3R1"	"SDR12"	"13"	110.5650572	4	"HFCS"	"R1"	0	0	1.000000001	0.979539992836667	0	1
"515"	"S3R1_13"	"Ssal"	"S3R1"	"SDR12"	"13"	110.5650572	6	"HFCS"	"R1"	0.017820141	0.01395911045	1.000000001	0.979539992836667	0.0142506794537052	1
"516"	"S3R1_13"	"Vaty"	"S3R1"	"SDR12"	"13"	110.5650572	3	"HFCS"	"R1"	0.067965189	0.1064787961	1.000000001	0.979539992836667	0.108702857339848	1
"517"	"S3R1_15"	"Lcas"	"S3R1"	"SDR12"	"15"	127.7441391	5	"HFCS"	"R1"	0.923746374	0.86832159156	1	0.976748169493333	0.888992289599501	1
"518"	"S3R1_15"	"Lreu"	"S3R1"	"SDR12"	"15"	127.7441391	6	"HFCS"	"R1"	0.003729797	0.00292167431666667	1	0.976748169493333	0.00299122579178441	1
"519"	"S3R1_15"	"Phis"	"S3R1"	"SDR12"	"15"	127.7441391	4	"HFCS"	"R1"	0	0	1	0.976748169493333	0	1
"520"	"S3R1_15"	"Smit"	"S3R1"	"SDR12"	"15"	127.7441391	4	"HFCS"	"R1"	0	0	1	0.976748169493333	0	1
"521"	"S3R1_15"	"Ssal"	"S3R1"	"SDR12"	"15"	127.7441391	6	"HFCS"	"R1"	0.010360547	0.00811576181666667	1	0.976748169493333	0.0083089603545165	1
"522"	"S3R1_15"	"Vaty"	"S3R1"	"SDR12"	"15"	127.7441391	3	"HFCS"	"R1"	0.062163282	0.0973891418	1	0.976748169493333	0.099707524254198	1
"523"	"S3R1_18"	"Lcas"	"S3R1"	"SDR12"	"18"	164.9358567	5	"HFCS"	"R1"	0.490261086	0.46084542084	1	1.25132062429	0.368287241410637	1
"524"	"S3R1_18"	"Lreu"	"S3R1"	"SDR12"	"18"	164.9358567	6	"HFCS"	"R1"	0.003729797	0.00292167431666667	1	1.25132062429	0.00233487266169246	1
"525"	"S3R1_18"	"Phis"	"S3R1"	"SDR12"	"18"	164.9358567	4	"HFCS"	"R1"	0	0	1	1.25132062429	0	1
"526"	"S3R1_18"	"Smit"	"S3R1"	"SDR12"	"18"	164.9358567	4	"HFCS"	"R1"	0	0	1	1.25132062429	0	1
"527"	"S3R1_18"	"Ssal"	"S3R1"	"SDR12"	"18"	164.9358567	6	"HFCS"	"R1"	0.00663075	0.0051940875	1	1.25132062429	0.00415088459278542	1
"528"	"S3R1_18"	"Vaty"	"S3R1"	"SDR12"	"18"	164.9358567	3	"HFCS"	"R1"	0.499378367	0.782359441633333	1	1.25132062429	0.625227001334885	1
"529"	"S3R1_3"	"Lcas"	"S3R1"	"SDR12"	"3"	25.80579897	5	"HFCS"	"R1"	0.846249482	0.79547451308	1	0.925489017821667	0.859518046958911	1
"530"	"S3R1_3"	"Lreu"	"S3R1"	"SDR12"	"3"	25.80579897	6	"HFCS"	"R1"	0.02859511	0.0223995028333333	1	0.925489017821667	0.0242028834508002	1
"531"	"S3R1_3"	"Phis"	"S3R1"	"SDR12"	"3"	25.80579897	4	"HFCS"	"R1"	0.012018235	0.014121426125	1	0.925489017821667	0.0152583400268085	1
"532"	"S3R1_3"	"Smit"	"S3R1"	"SDR12"	"3"	25.80579897	4	"HFCS"	"R1"	0	0	1	0.925489017821667	0	1
"533"	"S3R1_3"	"Ssal"	"S3R1"	"SDR12"	"3"	25.80579897	6	"HFCS"	"R1"	0.106920845	0.0837546619166667	1	0.925489017821667	0.090497737200384	1
"534"	"S3R1_3"	"Vaty"	"S3R1"	"SDR12"	"3"	25.80579897	3	"HFCS"	"R1"	0.006216328	0.00973891386666667	1	0.925489017821667	0.0105229923630961	1
"535"	"S3R1_6"	"Lcas"	"S3R1"	"SDR12"	"6"	51.00999262	5	"HFCS"	"R1"	0.783257356	0.73626191464	1	0.983630335548333	0.748514851597744	1
"536"	"S3R1_6"	"Lreu"	"S3R1"	"SDR12"	"6"	51.00999262	6	"HFCS"	"R1"	0.003315375	0.00259704375	1	0.983630335548333	0.00264026398550656	1
"537"	"S3R1_6"	"Phis"	"S3R1"	"SDR12"	"6"	51.00999262	4	"HFCS"	"R1"	0	0	1	0.983630335548333	0	1
"538"	"S3R1_6"	"Smit"	"S3R1"	"SDR12"	"6"	51.00999262	4	"HFCS"	"R1"	0.002486531	0.002921673925	1	0.983630335548333	0.00297029668505627	1
"539"	"S3R1_6"	"Ssal"	"S3R1"	"SDR12"	"6"	51.00999262	6	"HFCS"	"R1"	0.113137174	0.0886241196333333	1	0.983630335548333	0.0900990101976969	1
"540"	"S3R1_6"	"Vaty"	"S3R1"	"SDR12"	"6"	51.00999262	3	"HFCS"	"R1"	0.097803564	0.1532255836	1	0.983630335548333	0.155775577533996	1
"541"	"S3R1_7"	"Lcas"	"S3R1"	"SDR12"	"7"	59.54937606	5	"HFCS"	"R1"	0.513054289	0.48227103166	1	1.04258322992667	0.462573171922132	1
"542"	"S3R1_7"	"Lreu"	"S3R1"	"SDR12"	"7"	59.54937606	6	"HFCS"	"R1"	0.0132615	0.010388175	1	1.04258322992667	0.00996388077403728	1
"543"	"S3R1_7"	"Phis"	"S3R1"	"SDR12"	"7"	59.54937606	4	"HFCS"	"R1"	0.000828844	0.0009738917	1	1.04258322992667	0.000934114104318081	1
"544"	"S3R1_7"	"Smit"	"S3R1"	"SDR12"	"7"	59.54937606	4	"HFCS"	"R1"	0.00663075	0.00779113125	1	1.04258322992667	0.00747291058052796	1
"545"	"S3R1_7"	"Ssal"	"S3R1"	"SDR12"	"7"	59.54937606	6	"HFCS"	"R1"	0.241607957	0.189259566316667	1	1.04258322992667	0.18152945576343	1
"546"	"S3R1_7"	"Vaty"	"S3R1"	"SDR12"	"7"	59.54937606	3	"HFCS"	"R1"	0.22461666	0.351899434	1	1.04258322992667	0.337526466855554	1
"547"	"S3R1_9"	"Lcas"	"S3R1"	"SDR12"	"9"	76.40534862	5	"HFCS"	"R1"	0.651471198	0.61238292612	1.000000001	1.14364069728667	0.53546793811457	1
"548"	"S3R1_9"	"Lreu"	"S3R1"	"SDR12"	"9"	76.40534862	6	"HFCS"	"R1"	0.004144219	0.00324630488333333	1.000000001	1.14364069728667	0.00283857062015659	1
"549"	"S3R1_9"	"Phis"	"S3R1"	"SDR12"	"9"	76.40534862	4	"HFCS"	"R1"	0	0	1.000000001	1.14364069728667	0	1
"550"	"S3R1_9"	"Smit"	"S3R1"	"SDR12"	"9"	76.40534862	4	"HFCS"	"R1"	0.000414422	0.00048694585	1.000000001	1.14364069728667	0.000425785695765548	1
"551"	"S3R1_9"	"Ssal"	"S3R1"	"SDR12"	"9"	76.40534862	6	"HFCS"	"R1"	0.014504766	0.0113620667	1.000000001	1.14364069728667	0.00993499682807455	1
"552"	"S3R1_9"	"Vaty"	"S3R1"	"SDR12"	"9"	76.40534862	3	"HFCS"	"R1"	0.329465396	0.516162453733333	1.000000001	1.14364069728667	0.451332708741434	1
"553"	"S3R1_takedown"	"Lcas"	"S3R1"	"SDR12"	"takedown"	175.8535038	5	"HFCS"	"R1"	0.19602155	0.184260257	1	1.35861099586667	0.13562399948225	1
"554"	"S3R1_takedown"	"Lreu"	"S3R1"	"SDR12"	"takedown"	175.8535038	6	"HFCS"	"R1"	0.014504766	0.0113620667	1	1.35861099586667	0.00836300216512826	1
"555"	"S3R1_takedown"	"Phis"	"S3R1"	"SDR12"	"takedown"	175.8535038	4	"HFCS"	"R1"	0	0	1	1.35861099586667	0	1
"556"	"S3R1_takedown"	"Smit"	"S3R1"	"SDR12"	"takedown"	175.8535038	4	"HFCS"	"R1"	0.000414422	0.00048694585	1	1.35861099586667	0.000358414477345941	1
"557"	"S3R1_takedown"	"Ssal"	"S3R1"	"SDR12"	"takedown"	175.8535038	6	"HFCS"	"R1"	0.094073767	0.0736911174833333	1	1.35861099586667	0.0542400420043158	1
"558"	"S3R1_takedown"	"Vaty"	"S3R1"	"SDR12"	"takedown"	175.8535038	3	"HFCS"	"R1"	0.694985495	1.08881060883333	1	1.35861099586667	0.80141454187096	1
"559"	"S3R2_0"	"Lcas"	"S3R2"	"SDR12"	"0"	0.348819876	5	"HFCS"	"R2"	0.065893079	0.06193949426	1	1.15415872365167	0.0536663571402279	1
"560"	"S3R2_0"	"Lreu"	"S3R2"	"SDR12"	"0"	0.348819876	6	"HFCS"	"R2"	0.004558641	0.00357093545	1	1.15415872365167	0.00309397258524533	1
"561"	"S3R2_0"	"Phis"	"S3R2"	"SDR12"	"0"	0.348819876	4	"HFCS"	"R2"	0.920430999	1.081506423825	1	1.15415872365167	0.937051725782741	1
"562"	"S3R2_0"	"Smit"	"S3R2"	"SDR12"	"0"	0.348819876	4	"HFCS"	"R2"	0	0	1	1.15415872365167	0	1
"563"	"S3R2_0"	"Ssal"	"S3R2"	"SDR12"	"0"	0.348819876	6	"HFCS"	"R2"	0.009117281	0.00714187011666667	1	1.15415872365167	0.00618794449178563	1
"564"	"S3R2_0"	"Vaty"	"S3R2"	"SDR12"	"0"	0.348819876	3	"HFCS"	"R2"	0	0	1	1.15415872365167	0	1
"565"	"S3R2_11"	"Lcas"	"S3R2"	"SDR12"	"11"	100.2525929	5	"HFCS"	"R2"	0.826771654	0.77716535476	1	1.02745544959333	0.756398104723277	1
"566"	"S3R2_11"	"Lreu"	"S3R2"	"SDR12"	"11"	100.2525929	6	"HFCS"	"R2"	0.002072109	0.00162315205	1	1.02745544959333	0.0015797785204628	1
"567"	"S3R2_11"	"Phis"	"S3R2"	"SDR12"	"11"	100.2525929	4	"HFCS"	"R2"	0	0	1	1.02745544959333	0	1
"568"	"S3R2_11"	"Smit"	"S3R2"	"SDR12"	"11"	100.2525929	4	"HFCS"	"R2"	0	0	1	1.02745544959333	0	1
"569"	"S3R2_11"	"Ssal"	"S3R2"	"SDR12"	"11"	100.2525929	6	"HFCS"	"R2"	0.024865313	0.0194778285166667	1	1.02745544959333	0.01895734605756	1
"570"	"S3R2_11"	"Vaty"	"S3R2"	"SDR12"	"11"	100.2525929	3	"HFCS"	"R2"	0.146290924	0.229189114266667	1	1.02745544959333	0.2230647706987	1
"571"	"S3R2_13"	"Lcas"	"S3R2"	"SDR12"	"13"	119.1515696	5	"HFCS"	"R2"	0.265644426	0.24970576044	0.999999999	0.97979969494	0.254853886697006	1
"572"	"S3R2_13"	"Lreu"	"S3R2"	"SDR12"	"13"	119.1515696	6	"HFCS"	"R2"	0.002072109	0.00162315205	0.999999999	0.97979969494	0.00165661620266109	1
"573"	"S3R2_13"	"Phis"	"S3R2"	"SDR12"	"13"	119.1515696	4	"HFCS"	"R2"	0	0	0.999999999	0.97979969494	0	1
"574"	"S3R2_13"	"Smit"	"S3R2"	"SDR12"	"13"	119.1515696	4	"HFCS"	"R2"	0	0	0.999999999	0.97979969494	0	1
"575"	"S3R2_13"	"Ssal"	"S3R2"	"SDR12"	"13"	119.1515696	6	"HFCS"	"R2"	0.534604227	0.41877331115	0.999999999	0.97979969494	0.427407064232291	1
"576"	"S3R2_13"	"Vaty"	"S3R2"	"SDR12"	"13"	119.1515696	3	"HFCS"	"R2"	0.197679237	0.3096974713	0.999999999	0.97979969494	0.316082432868041	1
"577"	"S3R2_15"	"Lcas"	"S3R2"	"SDR12"	"15"	137.4900564	5	"HFCS"	"R2"	0.931205968	0.87533360992	1	0.96655477252	0.9056223556145	1
"578"	"S3R2_15"	"Lreu"	"S3R2"	"SDR12"	"15"	137.4900564	6	"HFCS"	"R2"	0.004144219	0.00324630488333333	1	0.96655477252	0.00335863520167571	1
"579"	"S3R2_15"	"Phis"	"S3R2"	"SDR12"	"15"	137.4900564	4	"HFCS"	"R2"	0	0	1	0.96655477252	0	1
"580"	"S3R2_15"	"Smit"	"S3R2"	"SDR12"	"15"	137.4900564	4	"HFCS"	"R2"	0	0	1	0.96655477252	0	1
"581"	"S3R2_15"	"Ssal"	"S3R2"	"SDR12"	"15"	137.4900564	6	"HFCS"	"R2"	0.016991297	0.0133098493166667	1	0.96655477252	0.0137704035974756	1
"582"	"S3R2_15"	"Vaty"	"S3R2"	"SDR12"	"15"	137.4900564	3	"HFCS"	"R2"	0.047658516	0.0746650084	1	0.96655477252	0.0772486055863482	1
"583"	"S3R2_18"	"Lcas"	"S3R2"	"SDR12"	"18"	160.9307584	5	"HFCS"	"R2"	0.624948197	0.58745130518	0.999999999	1.10296449699667	0.532611255194169	1
"584"	"S3R2_18"	"Lreu"	"S3R2"	"SDR12"	"18"	160.9307584	6	"HFCS"	"R2"	0.047244094	0.0370078736333333	0.999999999	1.10296449699667	0.033553095982785	1
"585"	"S3R2_18"	"Phis"	"S3R2"	"SDR12"	"18"	160.9307584	4	"HFCS"	"R2"	0	0	0.999999999	1.10296449699667	0	1
"586"	"S3R2_18"	"Smit"	"S3R2"	"SDR12"	"18"	160.9307584	4	"HFCS"	"R2"	0	0	0.999999999	1.10296449699667	0	1
"587"	"S3R2_18"	"Ssal"	"S3R2"	"SDR12"	"18"	160.9307584	6	"HFCS"	"R2"	0.044757563	0.0350600910166667	0.999999999	1.10296449699667	0.0317871437495351	1
"588"	"S3R2_18"	"Vaty"	"S3R2"	"SDR12"	"18"	160.9307584	3	"HFCS"	"R2"	0.283050145	0.443445227166667	0.999999999	1.10296449699667	0.402048505073511	1
"589"	"S3R2_3"	"Lcas"	"S3R2"	"SDR12"	"3"	26.64450906	5	"HFCS"	"R2"	0.278077082	0.26139245708	1.000000001	1.16500138246333	0.224370941541116	1
"590"	"S3R2_3"	"Lreu"	"S3R2"	"SDR12"	"3"	26.64450906	6	"HFCS"	"R2"	0.053874845	0.0422019619166667	1.000000001	1.16500138246333	0.0362248170276269	1
"591"	"S3R2_3"	"Phis"	"S3R2"	"SDR12"	"3"	26.64450906	4	"HFCS"	"R2"	0.001243266	0.00146083755	1.000000001	1.16500138246333	0.00125393632315795	1
"592"	"S3R2_3"	"Smit"	"S3R2"	"SDR12"	"3"	26.64450906	4	"HFCS"	"R2"	0	0	1.000000001	1.16500138246333	0	1
"593"	"S3R2_3"	"Ssal"	"S3R2"	"SDR12"	"3"	26.64450906	6	"HFCS"	"R2"	0.235806051	0.18471473995	1.000000001	1.16500138246333	0.158553236700398	1
"594"	"S3R2_3"	"Vaty"	"S3R2"	"SDR12"	"3"	26.64450906	3	"HFCS"	"R2"	0.430998757	0.675231385966667	1.000000001	1.16500138246333	0.579597068407701	1
"595"	"S3R2_6"	"Lcas"	"S3R2"	"SDR12"	"6"	53.27790487	5	"HFCS"	"R2"	0.790302528	0.74288437632	1	0.972885067003333	0.763589042031678	1
"596"	"S3R2_6"	"Lreu"	"S3R2"	"SDR12"	"6"	53.27790487	6	"HFCS"	"R2"	0.002486531	0.00194778261666667	1	0.972885067003333	0.00200206857184703	1
"597"	"S3R2_6"	"Phis"	"S3R2"	"SDR12"	"6"	53.27790487	4	"HFCS"	"R2"	0	0	1	0.972885067003333	0	1
"598"	"S3R2_6"	"Smit"	"S3R2"	"SDR12"	"6"	53.27790487	4	"HFCS"	"R2"	0.006216328	0.0073041854	1	0.972885067003333	0.00750775774830037	1
"599"	"S3R2_6"	"Ssal"	"S3R2"	"SDR12"	"6"	53.27790487	6	"HFCS"	"R2"	0.120182346	0.0941428377	1	0.972885067003333	0.0967666591799763	1
"600"	"S3R2_6"	"Vaty"	"S3R2"	"SDR12"	"6"	53.27790487	3	"HFCS"	"R2"	0.080812267	0.126605884966667	1	0.972885067003333	0.130134472468198	1
"601"	"S3R2_7"	"Lcas"	"S3R2"	"SDR12"	"7"	62.14859287	5	"HFCS"	"R2"	0.315375052	0.29645254888	0.999999999	1.177986599255	0.251660374632009	1
"602"	"S3R2_7"	"Lreu"	"S3R2"	"SDR12"	"7"	62.14859287	6	"HFCS"	"R2"	0.002900953	0.00227241318333333	0.999999999	1.177986599255	0.00192906539409743	1
"603"	"S3R2_7"	"Phis"	"S3R2"	"SDR12"	"7"	62.14859287	4	"HFCS"	"R2"	0	0	0.999999999	1.177986599255	0	1
"604"	"S3R2_7"	"Smit"	"S3R2"	"SDR12"	"7"	62.14859287	4	"HFCS"	"R2"	0.002072109	0.002434728075	0.999999999	1.177986599255	0.0020668554944002	1
"605"	"S3R2_7"	"Ssal"	"S3R2"	"SDR12"	"7"	62.14859287	6	"HFCS"	"R2"	0.239950269	0.18796104405	0.999999999	1.177986599255	0.159561275288593	1
"606"	"S3R2_7"	"Vaty"	"S3R2"	"SDR12"	"7"	62.14859287	3	"HFCS"	"R2"	0.439701616	0.688865865066667	0.999999999	1.177986599255	0.584782429190901	1
"607"	"S3R2_9"	"Lcas"	"S3R2"	"SDR12"	"9"	81.14539287	5	"HFCS"	"R2"	0.526315789	0.49473684166	1	1.20243127489333	0.411447083912457	1
"608"	"S3R2_9"	"Lreu"	"S3R2"	"SDR12"	"9"	81.14539287	6	"HFCS"	"R2"	0.007045172	0.00551871806666667	1	1.20243127489333	0.00458963283964502	1
"609"	"S3R2_9"	"Phis"	"S3R2"	"SDR12"	"9"	81.14539287	4	"HFCS"	"R2"	0	0	1	1.20243127489333	0	1
"610"	"S3R2_9"	"Smit"	"S3R2"	"SDR12"	"9"	81.14539287	4	"HFCS"	"R2"	0.001657688	0.0019477834	1	1.20243127489333	0.00161987087384498	1
"611"	"S3R2_9"	"Ssal"	"S3R2"	"SDR12"	"9"	81.14539287	6	"HFCS"	"R2"	0.036054704	0.0282428514666667	1	1.20243127489333	0.0234881211561734	1
"612"	"S3R2_9"	"Vaty"	"S3R2"	"SDR12"	"9"	81.14539287	3	"HFCS"	"R2"	0.428926647	0.6719850803	1	1.20243127489333	0.55885529121788	1
"613"	"S3R2_takedown"	"Lcas"	"S3R2"	"SDR12"	"takedown"	171.3707584	5	"HFCS"	"R2"	0.876502279	0.82391214226	1	0.935260395293333	0.880944116105323	1
"614"	"S3R2_takedown"	"Lreu"	"S3R2"	"SDR12"	"takedown"	171.3707584	6	"HFCS"	"R2"	0.042685454	0.0334369389666667	1	0.935260395293333	0.0357514753484024	1
"615"	"S3R2_takedown"	"Phis"	"S3R2"	"SDR12"	"takedown"	171.3707584	4	"HFCS"	"R2"	0	0	1	0.935260395293333	0	1
"616"	"S3R2_takedown"	"Smit"	"S3R2"	"SDR12"	"takedown"	171.3707584	4	"HFCS"	"R2"	0	0	1	0.935260395293333	0	1
"617"	"S3R2_takedown"	"Ssal"	"S3R2"	"SDR12"	"takedown"	171.3707584	6	"HFCS"	"R2"	0.062163282	0.0486945709	1	0.935260395293333	0.0520652549226438	1
"618"	"S3R2_takedown"	"Vaty"	"S3R2"	"SDR12"	"takedown"	171.3707584	3	"HFCS"	"R2"	0.018648985	0.0292167431666667	1	0.935260395293333	0.0312391536236314	1
"619"	"S3R3_0"	"Lcas"	"S3R3"	"SDR12"	"0"	0.491707317	5	"HFCS"	"R3"	0.048901782	0.04596767508	1	1.15523000413	0.0397909290060537	1
"620"	"S3R3_0"	"Lreu"	"S3R3"	"SDR12"	"0"	0.491707317	6	"HFCS"	"R3"	0.005801906	0.00454482636666667	1	1.15523000413	0.00393413116904747	1
"621"	"S3R3_0"	"Phis"	"S3R3"	"SDR12"	"0"	0.491707317	4	"HFCS"	"R3"	0.929962702	1.09270617485	1	1.15523000413	0.945877592292033	1
"622"	"S3R3_0"	"Smit"	"S3R3"	"SDR12"	"0"	0.491707317	4	"HFCS"	"R3"	0	0	1	1.15523000413	0	1
"623"	"S3R3_0"	"Ssal"	"S3R3"	"SDR12"	"0"	0.491707317	6	"HFCS"	"R3"	0.01533361	0.0120113278333333	1	1.15523000413	0.0103973475328656	1
"624"	"S3R3_0"	"Vaty"	"S3R3"	"SDR12"	"0"	0.491707317	3	"HFCS"	"R3"	0	0	1	1.15523000413	0	1
"625"	"S3R3_11"	"Lcas"	"S3R3"	"SDR12"	"11"	97.94150876	5	"HFCS"	"R3"	0.947782843	0.89091587242	1	0.959088271836667	0.928919577667115	1
"626"	"S3R3_11"	"Lreu"	"S3R3"	"SDR12"	"11"	97.94150876	6	"HFCS"	"R3"	0.003729797	0.00292167431666667	1	0.959088271836667	0.00304630387260562	1
"627"	"S3R3_11"	"Phis"	"S3R3"	"SDR12"	"11"	97.94150876	4	"HFCS"	"R3"	0	0	1	0.959088271836667	0	1
"628"	"S3R3_11"	"Smit"	"S3R3"	"SDR12"	"11"	97.94150876	4	"HFCS"	"R3"	0	0	1	0.959088271836667	0	1
"629"	"S3R3_11"	"Ssal"	"S3R3"	"SDR12"	"11"	97.94150876	6	"HFCS"	"R3"	0.013675922	0.0107128055666667	1	0.959088271836667	0.0111697805939713	1
"630"	"S3R3_11"	"Vaty"	"S3R3"	"SDR12"	"11"	97.94150876	3	"HFCS"	"R3"	0.034811438	0.0545379195333333	1	0.959088271836667	0.0568643378663077	1
"631"	"S3R3_13"	"Lcas"	"S3R3"	"SDR12"	"13"	116.1637109	5	"HFCS"	"R3"	0.985495234	0.92636551996	1.000000001	0.94422019721	0.981090557792814	1
"632"	"S3R3_13"	"Lreu"	"S3R3"	"SDR12"	"13"	116.1637109	6	"HFCS"	"R3"	0.001657688	0.00129852226666667	1.000000001	0.94422019721	0.00137523246219851	1
"633"	"S3R3_13"	"Phis"	"S3R3"	"SDR12"	"13"	116.1637109	4	"HFCS"	"R3"	0	0	1.000000001	0.94422019721	0	1
"634"	"S3R3_13"	"Smit"	"S3R3"	"SDR12"	"13"	116.1637109	4	"HFCS"	"R3"	0	0	1.000000001	0.94422019721	0	1
"635"	"S3R3_13"	"Ssal"	"S3R3"	"SDR12"	"13"	116.1637109	6	"HFCS"	"R3"	0.004558641	0.00357093545	1.000000001	0.94422019721	0.00378188844143714	1
"636"	"S3R3_13"	"Vaty"	"S3R3"	"SDR12"	"13"	116.1637109	3	"HFCS"	"R3"	0.008288438	0.0129852195333333	1.000000001	0.94422019721	0.0137523213035501	1
"637"	"S3R3_15"	"Lcas"	"S3R3"	"SDR12"	"15"	134.1130639	5	"HFCS"	"R3"	0.983008703	0.92402818082	0.999999999	0.941558225153333	0.98138187967029	1
"638"	"S3R3_15"	"Lreu"	"S3R3"	"SDR12"	"15"	134.1130639	6	"HFCS"	"R3"	0.006216328	0.00486945693333333	0.999999999	0.941558225153333	0.00517170027646494	1
"639"	"S3R3_15"	"Phis"	"S3R3"	"SDR12"	"15"	134.1130639	4	"HFCS"	"R3"	0	0	0.999999999	0.941558225153333	0	1
"640"	"S3R3_15"	"Smit"	"S3R3"	"SDR12"	"15"	134.1130639	4	"HFCS"	"R3"	0	0	0.999999999	0.941558225153333	0	1
"641"	"S3R3_15"	"Ssal"	"S3R3"	"SDR12"	"15"	134.1130639	6	"HFCS"	"R3"	0.005387484	0.0042201958	0.999999999	0.941558225153333	0.00448214001774849	1
"642"	"S3R3_15"	"Vaty"	"S3R3"	"SDR12"	"15"	134.1130639	3	"HFCS"	"R3"	0.005387484	0.0084403916	0.999999999	0.941558225153333	0.00896428003549698	1
"643"	"S3R3_18"	"Lcas"	"S3R3"	"SDR12"	"18"	160.7009771	5	"HFCS"	"R3"	0.931205968	0.87533360992	1	0.95356955377	0.917954654130169	1
"644"	"S3R3_18"	"Lreu"	"S3R3"	"SDR12"	"18"	160.7009771	6	"HFCS"	"R3"	0.014504766	0.0113620667	1	0.95356955377	0.0119152993665531	1
"645"	"S3R3_18"	"Phis"	"S3R3"	"SDR12"	"18"	160.7009771	4	"HFCS"	"R3"	0	0	1	0.95356955377	0	1
"646"	"S3R3_18"	"Smit"	"S3R3"	"SDR12"	"18"	160.7009771	4	"HFCS"	"R3"	0	0	1	0.95356955377	0	1
"647"	"S3R3_18"	"Ssal"	"S3R3"	"SDR12"	"18"	160.7009771	6	"HFCS"	"R3"	0.023207625	0.01817930625	1	0.95356955377	0.0190644784936001	1
"648"	"S3R3_18"	"Vaty"	"S3R3"	"SDR12"	"18"	160.7009771	3	"HFCS"	"R3"	0.031081641	0.0486945709	1	0.95356955377	0.0510655680096778	1
"649"	"S3R3_3"	"Lcas"	"S3R3"	"SDR12"	"3"	27.33587384	5	"HFCS"	"R3"	0.948197265	0.8913054291	1	0.93740295625	0.950824214023808	1
"650"	"S3R3_3"	"Lreu"	"S3R3"	"SDR12"	"3"	27.33587384	6	"HFCS"	"R3"	0.002900953	0.00227241318333333	1	0.93740295625	0.00242415832826464	1
"651"	"S3R3_3"	"Phis"	"S3R3"	"SDR12"	"3"	27.33587384	4	"HFCS"	"R3"	0	0	1	0.93740295625	0	1
"652"	"S3R3_3"	"Smit"	"S3R3"	"SDR12"	"3"	27.33587384	4	"HFCS"	"R3"	0	0	1	0.93740295625	0	1
"653"	"S3R3_3"	"Ssal"	"S3R3"	"SDR12"	"3"	27.33587384	6	"HFCS"	"R3"	0.04185661	0.0327876778333333	1	0.93740295625	0.0349771436229491	1
"654"	"S3R3_3"	"Vaty"	"S3R3"	"SDR12"	"3"	27.33587384	3	"HFCS"	"R3"	0.007045172	0.0110374361333333	1	0.93740295625	0.0117744840249786	1
"655"	"S3R3_6"	"Lcas"	"S3R3"	"SDR12"	"6"	52.80053953	5	"HFCS"	"R3"	0.503937008	0.47370078752	1	0.925261776503333	0.511964072816417	1
"656"	"S3R3_6"	"Lreu"	"S3R3"	"SDR12"	"6"	52.80053953	6	"HFCS"	"R3"	0.007874016	0.0061679792	1	0.925261776503333	0.00666619907644891	1
"657"	"S3R3_6"	"Phis"	"S3R3"	"SDR12"	"6"	52.80053953	4	"HFCS"	"R3"	0	0	1	0.925261776503333	0	1
"658"	"S3R3_6"	"Smit"	"S3R3"	"SDR12"	"6"	52.80053953	4	"HFCS"	"R3"	0	0	1	0.925261776503333	0	1
"659"	"S3R3_6"	"Ssal"	"S3R3"	"SDR12"	"6"	52.80053953	6	"HFCS"	"R3"	0.407791131	0.31943638595	1	0.925261776503333	0.345238930281099	1
"660"	"S3R3_6"	"Vaty"	"S3R3"	"SDR12"	"6"	52.80053953	3	"HFCS"	"R3"	0.080397845	0.125956623833333	1	0.925261776503333	0.136130797826035	1
"661"	"S3R3_7"	"Lcas"	"S3R3"	"SDR12"	"7"	61.35773953	5	"HFCS"	"R3"	0.953999171	0.89675922074	0.999999999	0.945453790856667	0.948496086654277	1
"662"	"S3R3_7"	"Lreu"	"S3R3"	"SDR12"	"7"	61.35773953	6	"HFCS"	"R3"	0.002486531	0.00194778261666667	0.999999999	0.945453790856667	0.00206015633498259	1
"663"	"S3R3_7"	"Phis"	"S3R3"	"SDR12"	"7"	61.35773953	4	"HFCS"	"R3"	0	0	0.999999999	0.945453790856667	0	1
"664"	"S3R3_7"	"Smit"	"S3R3"	"SDR12"	"7"	61.35773953	4	"HFCS"	"R3"	0	0	0.999999999	0.945453790856667	0	1
"665"	"S3R3_7"	"Ssal"	"S3R3"	"SDR12"	"7"	61.35773953	6	"HFCS"	"R3"	0.027351844	0.0214256111333333	0.999999999	0.945453790856667	0.0226617221703874	1
"666"	"S3R3_7"	"Vaty"	"S3R3"	"SDR12"	"7"	61.35773953	3	"HFCS"	"R3"	0.016162453	0.0253211763666667	0.999999999	0.945453790856667	0.0267820348403526	1
"667"	"S3R3_9"	"Lcas"	"S3R3"	"SDR12"	"9"	79.63243183	5	"HFCS"	"R3"	0.72026523	0.6770493162	1	1.08381129951667	0.624692985302824	1
"668"	"S3R3_9"	"Lreu"	"S3R3"	"SDR12"	"9"	79.63243183	6	"HFCS"	"R3"	0.014090344	0.0110374361333333	1	1.08381129951667	0.0101839094483104	1
"669"	"S3R3_9"	"Phis"	"S3R3"	"SDR12"	"9"	79.63243183	4	"HFCS"	"R3"	0	0	1	1.08381129951667	0	1
"670"	"S3R3_9"	"Smit"	"S3R3"	"SDR12"	"9"	79.63243183	4	"HFCS"	"R3"	0	0	1	1.08381129951667	0	1
"671"	"S3R3_9"	"Ssal"	"S3R3"	"SDR12"	"9"	79.63243183	6	"HFCS"	"R3"	0.026108579	0.0204517202166667	1	1.08381129951667	0.0188701854518284	1
"672"	"S3R3_9"	"Vaty"	"S3R3"	"SDR12"	"9"	79.63243183	3	"HFCS"	"R3"	0.239535847	0.375272826966667	1	1.08381129951667	0.346252919797037	1
"673"	"S3R3_takedown"	"Lcas"	"S3R3"	"SDR12"	"takedown"	171.4086694	5	"HFCS"	"R3"	0.905511811	0.85118110234	1	0.954088962206667	0.89214018404672	1
"674"	"S3R3_takedown"	"Lreu"	"S3R3"	"SDR12"	"takedown"	171.4086694	6	"HFCS"	"R3"	0.018648985	0.0146083715833333	1	0.954088962206667	0.01531133066412	1
"675"	"S3R3_takedown"	"Phis"	"S3R3"	"SDR12"	"takedown"	171.4086694	4	"HFCS"	"R3"	0	0	1	0.954088962206667	0	1
"676"	"S3R3_takedown"	"Smit"	"S3R3"	"SDR12"	"takedown"	171.4086694	4	"HFCS"	"R3"	0	0	1	0.954088962206667	0	1
"677"	"S3R3_takedown"	"Ssal"	"S3R3"	"SDR12"	"takedown"	171.4086694	6	"HFCS"	"R3"	0.038955657	0.03051526465	1	0.954088962206667	0.0319836680422575	1
"678"	"S3R3_takedown"	"Vaty"	"S3R3"	"SDR12"	"takedown"	171.4086694	3	"HFCS"	"R3"	0.036883547	0.0577842236333333	1	0.954088962206667	0.0605648172469022	1
"679"	"S3R4_0"	"Lcas"	"S3R4"	"SDR12"	"0"	0.517647059	5	"HFCS"	"R4"	NA	NA	NA	NA	NA	NA
"680"	"S3R4_0"	"Lreu"	"S3R4"	"SDR12"	"0"	0.517647059	6	"HFCS"	"R4"	NA	NA	NA	NA	NA	NA
"681"	"S3R4_0"	"Phis"	"S3R4"	"SDR12"	"0"	0.517647059	4	"HFCS"	"R4"	NA	NA	NA	NA	NA	NA
"682"	"S3R4_0"	"Smit"	"S3R4"	"SDR12"	"0"	0.517647059	4	"HFCS"	"R4"	NA	NA	NA	NA	NA	NA
"683"	"S3R4_0"	"Ssal"	"S3R4"	"SDR12"	"0"	0.517647059	6	"HFCS"	"R4"	NA	NA	NA	NA	NA	NA
"684"	"S3R4_0"	"Vaty"	"S3R4"	"SDR12"	"0"	0.517647059	3	"HFCS"	"R4"	NA	NA	NA	NA	NA	NA
"685"	"S3R4_11"	"Lcas"	"S3R4"	"SDR12"	"11"	98.00529453	5	"HFCS"	"R4"	0.72896809	0.6852300046	1.000000001	1.0484915053	0.653538918661948	1
"686"	"S3R4_11"	"Lreu"	"S3R4"	"SDR12"	"11"	98.00529453	6	"HFCS"	"R4"	0	0	1.000000001	1.0484915053	0	1
"687"	"S3R4_11"	"Phis"	"S3R4"	"SDR12"	"11"	98.00529453	4	"HFCS"	"R4"	0	0	1.000000001	1.0484915053	0	1
"688"	"S3R4_11"	"Smit"	"S3R4"	"SDR12"	"11"	98.00529453	4	"HFCS"	"R4"	0	0	1.000000001	1.0484915053	0	1
"689"	"S3R4_11"	"Ssal"	"S3R4"	"SDR12"	"11"	98.00529453	6	"HFCS"	"R4"	0.078325736	0.0613551598666667	1.000000001	1.0484915053	0.0585175555133481	1
"690"	"S3R4_11"	"Vaty"	"S3R4"	"SDR12"	"11"	98.00529453	3	"HFCS"	"R4"	0.192706175	0.301906340833333	1.000000001	1.0484915053	0.287943525824704	1
"691"	"S3R4_13"	"Lcas"	"S3R4"	"SDR12"	"13"	116.1635066	5	"HFCS"	"R4"	0.956485702	0.89909655988	0.999999999	0.953959109196667	0.942489621632874	1
"692"	"S3R4_13"	"Lreu"	"S3R4"	"SDR12"	"13"	116.1635066	6	"HFCS"	"R4"	0	0	0.999999999	0.953959109196667	0	1
"693"	"S3R4_13"	"Phis"	"S3R4"	"SDR12"	"13"	116.1635066	4	"HFCS"	"R4"	0	0	0.999999999	0.953959109196667	0	1
"694"	"S3R4_13"	"Smit"	"S3R4"	"SDR12"	"13"	116.1635066	4	"HFCS"	"R4"	0	0	0.999999999	0.953959109196667	0	1
"695"	"S3R4_13"	"Ssal"	"S3R4"	"SDR12"	"13"	116.1635066	6	"HFCS"	"R4"	0.016991297	0.0133098493166667	0.999999999	0.953959109196667	0.0139522220484638	1
"696"	"S3R4_13"	"Vaty"	"S3R4"	"SDR12"	"13"	116.1635066	3	"HFCS"	"R4"	0.026523	0.0415527	0.999999999	0.953959109196667	0.043558156318662	1
"697"	"S3R4_15"	"Lcas"	"S3R4"	"SDR12"	"15"	134.0049485	5	"HFCS"	"R4"	0.932863655	0.8768918357	1	0.948635170566667	0.924372048293539	1
"698"	"S3R4_15"	"Lreu"	"S3R4"	"SDR12"	"15"	134.0049485	6	"HFCS"	"R4"	0.000414422	0.000324630566666667	1	0.948635170566667	0.000342208023420372	1
"699"	"S3R4_15"	"Phis"	"S3R4"	"SDR12"	"15"	134.0049485	4	"HFCS"	"R4"	0	0	1	0.948635170566667	0	1
"700"	"S3R4_15"	"Smit"	"S3R4"	"SDR12"	"15"	134.0049485	4	"HFCS"	"R4"	0	0	1	0.948635170566667	0	1
"701"	"S3R4_15"	"Ssal"	"S3R4"	"SDR12"	"15"	134.0049485	6	"HFCS"	"R4"	0.042271032	0.0331123084	1	0.948635170566667	0.0349052084799053	1
"702"	"S3R4_15"	"Vaty"	"S3R4"	"SDR12"	"15"	134.0049485	3	"HFCS"	"R4"	0.024450891	0.0383063959	1	0.948635170566667	0.0403805352031358	1
"703"	"S3R4_18"	"Lcas"	"S3R4"	"SDR12"	"18"	164.8628355	5	"HFCS"	"R4"	0.983837547	0.92480729418	1.000000001	0.94071418803	0.983090619815875	1
"704"	"S3R4_18"	"Lreu"	"S3R4"	"SDR12"	"18"	164.8628355	6	"HFCS"	"R4"	0	0	1.000000001	0.94071418803	0	1
"705"	"S3R4_18"	"Phis"	"S3R4"	"SDR12"	"18"	164.8628355	4	"HFCS"	"R4"	0	0	1.000000001	0.94071418803	0	1
"706"	"S3R4_18"	"Smit"	"S3R4"	"SDR12"	"18"	164.8628355	4	"HFCS"	"R4"	0	0	1.000000001	0.94071418803	0	1
"707"	"S3R4_18"	"Ssal"	"S3R4"	"SDR12"	"18"	164.8628355	6	"HFCS"	"R4"	0.012018235	0.00941428408333333	1.000000001	0.94071418803	0.0100075923198823	1
"708"	"S3R4_18"	"Vaty"	"S3R4"	"SDR12"	"18"	164.8628355	3	"HFCS"	"R4"	0.004144219	0.00649260976666667	1.000000001	0.94071418803	0.00690178786424301	1
"709"	"S3R4_3"	"Lcas"	"S3R4"	"SDR12"	"3"	28.00040164	5	"HFCS"	"R4"	0.957728968	0.90026522992	0.999999999	0.943116451403333	0.954564230727211	1
"710"	"S3R4_3"	"Lreu"	"S3R4"	"SDR12"	"3"	28.00040164	6	"HFCS"	"R4"	0.003315375	0.00259704375	0.999999999	0.943116451403333	0.00275368301139871	1
"711"	"S3R4_3"	"Phis"	"S3R4"	"SDR12"	"3"	28.00040164	4	"HFCS"	"R4"	0	0	0.999999999	0.943116451403333	0	1
"712"	"S3R4_3"	"Smit"	"S3R4"	"SDR12"	"3"	28.00040164	4	"HFCS"	"R4"	0	0	0.999999999	0.943116451403333	0	1
"713"	"S3R4_3"	"Ssal"	"S3R4"	"SDR12"	"3"	28.00040164	6	"HFCS"	"R4"	0.026523	0.02077635	0.999999999	0.943116451403333	0.0220294640911897	1
"714"	"S3R4_3"	"Vaty"	"S3R4"	"SDR12"	"3"	28.00040164	3	"HFCS"	"R4"	0.012432656	0.0194778277333333	0.999999999	0.943116451403333	0.0206526221702005	1
"715"	"S3R4_6"	"Lcas"	"S3R4"	"SDR12"	"6"	53.66216541	5	"HFCS"	"R4"	0.764608371	0.71873186874	0.999999999	1.03459731924	0.694697207671068	1
"716"	"S3R4_6"	"Lreu"	"S3R4"	"SDR12"	"6"	53.66216541	6	"HFCS"	"R4"	0.002486531	0.00194778261666667	0.999999999	1.03459731924	0.00188264804136307	1
"717"	"S3R4_6"	"Phis"	"S3R4"	"SDR12"	"6"	53.66216541	4	"HFCS"	"R4"	0	0	0.999999999	1.03459731924	0	1
"718"	"S3R4_6"	"Smit"	"S3R4"	"SDR12"	"6"	53.66216541	4	"HFCS"	"R4"	0	0	0.999999999	1.03459731924	0	1
"719"	"S3R4_6"	"Ssal"	"S3R4"	"SDR12"	"6"	53.66216541	6	"HFCS"	"R4"	0.065064235	0.0509669840833333	0.999999999	1.03459731924	0.0492626291751586	1
"720"	"S3R4_6"	"Vaty"	"S3R4"	"SDR12"	"6"	53.66216541	3	"HFCS"	"R4"	0.167840862	0.2629506838	0.999999999	1.03459731924	0.254157515112411	1
"721"	"S3R4_7"	"Lcas"	"S3R4"	"SDR12"	"7"	61.93086415	5	"HFCS"	"R4"	0.3787816	0.356054704	1	1.04313510173333	0.341331341844751	1
"722"	"S3R4_7"	"Lreu"	"S3R4"	"SDR12"	"7"	61.93086415	6	"HFCS"	"R4"	0.037297969	0.0292167423833333	1	1.04313510173333	0.0280085890454507	1
"723"	"S3R4_7"	"Phis"	"S3R4"	"SDR12"	"7"	61.93086415	4	"HFCS"	"R4"	0.000414422	0.00048694585	1	1.04313510173333	0.000466809955096768	1
"724"	"S3R4_7"	"Smit"	"S3R4"	"SDR12"	"7"	61.93086415	4	"HFCS"	"R4"	0	0	1	1.04313510173333	0	1
"725"	"S3R4_7"	"Ssal"	"S3R4"	"SDR12"	"7"	61.93086415	6	"HFCS"	"R4"	0.327807708	0.2567827046	1	1.04313510173333	0.246164379065871	1
"726"	"S3R4_7"	"Vaty"	"S3R4"	"SDR12"	"7"	61.93086415	3	"HFCS"	"R4"	0.255698301	0.4005940049	1	1.04313510173333	0.38402888008883	1
"727"	"S3R4_9"	"Lcas"	"S3R4"	"SDR12"	"9"	79.92934516	5	"HFCS"	"R4"	0.403646913	0.37942809822	1.000000001	1.28287470753667	0.295763955740125	1
"728"	"S3R4_9"	"Lreu"	"S3R4"	"SDR12"	"9"	79.92934516	6	"HFCS"	"R4"	0	0	1.000000001	1.28287470753667	0	1
"729"	"S3R4_9"	"Phis"	"S3R4"	"SDR12"	"9"	79.92934516	4	"HFCS"	"R4"	0	0	1.000000001	1.28287470753667	0	1
"730"	"S3R4_9"	"Smit"	"S3R4"	"SDR12"	"9"	79.92934516	4	"HFCS"	"R4"	0	0	1.000000001	1.28287470753667	0	1
"731"	"S3R4_9"	"Ssal"	"S3R4"	"SDR12"	"9"	79.92934516	6	"HFCS"	"R4"	0.039370079	0.0308398952166667	1.000000001	1.28287470753667	0.0240396782596832	1
"732"	"S3R4_9"	"Vaty"	"S3R4"	"SDR12"	"9"	79.92934516	3	"HFCS"	"R4"	0.556983009	0.8726067141	1.000000001	1.28287470753667	0.680196366000192	1
"733"	"S3R4_takedown"	"Lcas"	"S3R4"	"SDR12"	"takedown"	175.9988355	5	"HFCS"	"R4"	0.84583506	0.7950849564	1	0.92298936285	0.861423748097099	1
"734"	"S3R4_takedown"	"Lreu"	"S3R4"	"SDR12"	"takedown"	175.9988355	6	"HFCS"	"R4"	0.000828844	0.000649261133333333	1	0.92298936285	0.000703432953255874	1
"735"	"S3R4_takedown"	"Phis"	"S3R4"	"SDR12"	"takedown"	175.9988355	4	"HFCS"	"R4"	0	0	1	0.92298936285	0	1
"736"	"S3R4_takedown"	"Smit"	"S3R4"	"SDR12"	"takedown"	175.9988355	4	"HFCS"	"R4"	0	0	1	0.92298936285	0	1
"737"	"S3R4_takedown"	"Ssal"	"S3R4"	"SDR12"	"takedown"	175.9988355	6	"HFCS"	"R4"	0.144218815	0.112971405083333	1	0.92298936285	0.122397299070166	1
"738"	"S3R4_takedown"	"Vaty"	"S3R4"	"SDR12"	"takedown"	175.9988355	3	"HFCS"	"R4"	0.009117281	0.0142837402333333	1	0.92298936285	0.0154755198794795	1
